402
398
393
387
384
382
382
384
383
383
380
377
372
369
367
366
367
371
374
374
371
368
366
364
362
363
364
366
368
371
371
368
364
360
359
361
364
368
373
374
372
369
365
362
360
361
364
367
370
371
370
369
366
363
360
360
365
368
369
368
368
366
364
363
363
362
363
364
367
371
371
366
360
359
358
360
362
365
367
367
364
364
362
362
360
361
361
362
364
364
362
361
358
358
358
356
357
359
362
364
363
360
360
358
355
357
360
362
364
363
361
359
357
356
356
358
360
362
366
366
363
360
358
356
355
354
357
360
362
364
362
361
359
357
356
355
357
360
362
364
361
357
354
351
351
354
357
362
363
362
361
359
357
354
354
354
355
358
361
363
360
358
357
356
356
357
359
363
366
365
361
359
357
355
354
353
354
357
359
361
358
357
354
351
352
353
357
360
360
359
358
358
357
355
356
359
364
370
376
377
377
373
369
367
368
372
377
383
387
387
382
382
379
376
373
372
375
379
380
379
377
372
367
363
364
365
365
367
367
365
361
359
355
352
353
357
359
358
359
359
357
356
354
352
352
354
355
357
359
358
357
354
352
351
353
354
357
362
363
361
355
351
352
352
353
355
358
360
363
365
364
360
357
356
353
355
370
393
423
455
488
521
555
583
606
603
562
513
462
420
401
396
389
378
363
344
327
312
303
292
287
287
290
292
299
306
312
320
328
334
337
341
347
352
355
362
367
371
373
371
367
367
365
364
365
369
373
376
378
378
374
373
369
367
369
372
376
378
379
377
376
374
372
374
376
378
382
385
384
381
377
372
371
373
375
378
382
385
385
384
382
381
381
383
387
390
393
395
394
392
389
387
387
387
390
393
396
399
398
397
395
395
395
394
395
400
404
409
412
412
410
407
405
407
410
414
420
424
427
427
426
426
426
426
430
436
442
442
443
444
442
441
439
441
444
447
452
454
453
453
449
444
440
438
438
437
435
433
429
426
421
416
410
405
404
404
400
398
396
393
388
385
381
378
377
380
378
375
373
369
365
362
360
359
361
363
365
367
366
362
357
353
353
354
354
357
360
362
362
357
352
352
348
349
353
356
358
358
358
356
353
352
353
355
357
361
361
361
359
355
352
351
352
352
353
356
360
362
362
359
358
358
357
357
358
359
358
358
356
353
349
349
350
350
352
355
358
357
355
352
351
351
351
352
354
355
355
355
355
351
349
347
346
347
350
351
351
353
351
347
344
344
346
349
349
351
354
354
349
347
345
344
344
345
348
351
352
351
348
346
343
340
343
344
345
348
349
349
346
346
345
342
340
340
344
347
350
349
345
341
338
338
339
343
347
348
349
349
349
347
345
342
343
345
347
349
350
350
347
344
341
340
341
343
347
349
348
347
346
343
341
344
346
346
347
348
353
356
357
357
356
354
352
352
355
357
360
363
366
368
367
363
364
368
371
371
370
368
367
365
361
358
355
355
357
358
358
357
355
352
349
348
345
343
343
345
346
345
345
344
342
340
340
343
346
349
351
350
349
346
343
341
343
345
346
348
349
349
347
344
342
343
344
346
349
352
351
350
350
347
343
345
346
349
351
351
355
369
392
419
449
485
522
559
583
598
576
529
475
425
394
385
381
378
371
355
333
315
302
292
287
286
286
289
294
298
301
306
311
316
323
329
337
345
352
357
359
360
359
356
355
356
359
362
364
364
364
364
364
363
361
361
364
366
367
368
369
369
367
364
364
364
367
369
371
372
374
374
372
370
369
369
370
374
377
379
378
377
375
374
373
374
376
377
382
383
383
381
380
380
378
378
380
383
387
391
392
392
393
391
389
387
388
395
400
401
401
402
401
400
400
404
407
410
414
416
417
415
413
414
416
418
422
426
429
432
434
433
431
431
432
433
435
439
443
444
443
439
435
433
433
434
436
437
439
438
435
428
422
416
411
410
408
407
405
403
400
396
388
382
380
378
379
379
379
377
371
365
362
361
359
358
361
363
363
362
362
359
356
353
351
352
355
357
358
358
357
355
351
351
350
351
355
357
357
358
358
355
352
351
350
351
355
358
361
361
360
357
356
354
354
354
356
359
360
360
358
356
355
353
351
353
357
358
360
361
358
356
354
350
350
352
355
358
359
360
359
357
353
353
355
356
358
360
362
361
358
355
353
350
349
352
355
357
358
359
356
353
350
349
349
350
354
355
357
358
356
352
349
348
347
351
355
357
358
356
353
351
348
348
349
350
352
354
356
357
357
353
350
348
349
351
354
356
357
356
354
351
349
348
348
350
354
357
358
357
354
350
348
348
347
350
356
356
358
356
353
353
351
348
349
353
357
359
359
358
356
353
351
351
351
352
355
357
356
356
355
352
350
348
350
353
356
359
363
362
359
358
358
360
364
369
373
373
371
369
365
363
364
368
371
374
377
380
382
382
379
374
369
366
368
373
375
374
373
370
365
361
357
357
358
360
363
365
362
359
355
352
350
350
351
353
355
357
358
357
353
351
347
347
348
349
352
357
360
359
355
351
348
347
349
352
355
357
357
355
354
353
351
351
355
359
362
363
364
361
358
362
380
408
443
480
519
559
593
616
619
576
521
463
415
393
391
386
377
359
332
310
294
285
285
288
289
293
296
297
298
302
310
322
334
344
353
359
361
364
365
365
363
364
366
367
370
372
372
372
370
369
368
369
371
374
377
378
377
377
375
372
371
374
376
379
381
382
380
378
375
373
373
376
379
381
384
386
387
385
382
380
381
381
382
385
390
391
391
390
387
386
385
387
391
394
396
397
396
395
394
394
394
396
401
407
411
412
411
408
404
402
403
405
410
417
420
422
423
421
422
422
422
426
431
435
439
441
440
440
439
440
441
443
448
452
453
455
456
454
452
451
451
452
455
456
458
457
453
449
446
440
435
433
433
434
432
430
421
412
408
404
401
399
399
399
397
394
390
385
381
377
375
376
377
379
378
376
375
372
369
366
365
365
368
369
370
370
367
365
362
362
362
363
365
369
370
371
369
365
361
359
360
362
366
370
372
371
366
364
362
362
363
364
367
371
372
372
370
368
365
364
365
366
368
371
373
372
371
368
365
361
362
366
367
370
371
370
367
365
363
361
363
362
365
368
368
368
366
365
364
361
363
364
366
368
370
370
367
364
362
362
363
365
368
370
368
366
364
363
361
360
359
363
365
366
368
368
365
362
360
360
360
363
366
367
368
367
365
363
362
360
361
362
366
367
366
365
365
363
359
360
363
363
364
367
367
365
364
362
361
359
360
363
366
368
369
367
362
360
359
360
363
364
365
368
367
367
365
363
360
358
359
361
363
366
369
369
368
366
363
361
360
361
364
366
367
368
367
366
366
369
373
379
383
384
383
380
375
372
373
373
379
386
390
391
390
388
383
378
375
374
377
383
385
385
385
383
378
375
370
365
365
367
370
372
371
368
363
359
358
359
362
363
364
365
364
363
362
359
360
359
360
362
364
365
365
364
361
357
358
358
359
362
364
365
363
361
358
357
354
353
355
360
366
371
370
367
364
362
369
388
417
453
491
527
562
592
612
616
575
523
470
425
405
402
394
383
366
340
319
305
298
294
293
295
298
299
301
304
308
318
331
341
351
360
364
364
359
357
360
363
367
373
378
379
376
372
370
369
371
373
376
380
382
382
381
379
375
373
373
374
376
381
383
384
383
381
378
375
377
381
383
385
388
389
389
384
381
381
381
383
387
390
391
390
388
387
386
385
385
388
392
394
396
397
397
394
393
393
394
395
400
404
406
407
407
403
403
404
405
408
412
416
419
419
419
417
416
417
419
422
428
434
436
437
434
434
436
436
437
440
444
450
451
450
449
449
449
448
450
451
453
455
455
454
450
445
442
438
437
435
434
434
432
427
420
412
408
403
400
398
398
398
395
391
388
381
377
374
371
371
372
374
374
373
370
367
362
359
358
361
364
364
366
366
361
357
356
356
358
360
361
361
361
359
357
356
353
353
353
356
360
362
364
362
358
356
353
352
353
357
362
364
366
366
363
358
357
356
356
358
362
367
368
366
364
361
358
359
361
364
366
364
361
359
356
352
352
352
352
356
361
360
360
360
357
353
352
352
352
354
356
357
358
357
353
350
349
350
351
355
358
361
359
356
353
350
347
345
348
354
359
359
359
357
354
349
347
348
352
353
354
354
353
353
351
348
347
347
348
350
351
352
352
350
348
344
344
345
346
350
354
355
355
353
350
347
345
344
346
351
355
357
355
353
349
346
346
349
350
351
352
354
353
349
346
345
345
345
348
351
353
356
356
354
352
354
357
356
356
357
361
361
362
362
364
366
365
364
367
370
371
370
366
364
363
361
359
358
358
361
363
362
358
355
353
350
348
345
346
348
349
348
347
345
341
340
341
340
342
344
344
346
344
341
337
336
337
339
342
344
345
345
345
344
340
335
334
336
342
346
346
348
347
345
343
342
343
345
346
349
350
349
358
377
403
434
467
502
537
565
583
576
536
482
430
392
378
377
376
370
358
336
316
301
289
279
276
274
276
283
289
294
297
302
307
313
320
325
333
342
348
351
351
350
349
347
348
350
353
356
360
358
354
352
350
350
351
353
356
359
361
361
359
358
357
354
357
359
361
363
365
366
367
365
361
355
355
358
362
364
364
366
367
366
367
364
365
368
372
374
376
376
375
373
371
370
370
373
378
381
381
381
380
377
377
377
378
381
385
390
393
394
395
393
393
394
395
396
400
405
408
408
407
407
409
409
411
417
422
426
427
429
428
427
425
424
426
430
433
436
437
435
434
431
428
427
428
428
429
430
427
423
420
414
408
401
400
401
400
400
398
393
389
383
379
375
374
375
376
375
373
368
365
362
356
353
354
355
356
357
356
355
351
348
347
347
348
349
351
352
352
351
350
346
342
340
342
347
352
354
353
351
348
347
347
344
346
349
352
356
355
354
352
349
347
348
349
351
353
356
355
353
351
348
347
348
349
351
354
356
356
354
353
350
347
346
349
350
351
352
353
353
350
348
346
345
347
350
351
353
354
352
351
348
345
344
348
351
354
354
352
349
346
346
345
346
346
349
350
349
349
347
344
343
342
342
344
348
350
349
345
343
344
342
341
343
345
348
350
350
347
344
342
339
337
339
344
348
350
349
349
349
346
341
339
340
342
345
348
350
348
345
342
339
338
339
342
344
346
345
344
342
340
339
338
340
342
346
349
349
348
346
344
341
340
340
343
347
349
348
350
349
348
349
348
351
357
363
365
365
362
356
352
352
353
356
363
369
371
371
369
367
363
360
359
358
361
364
364
362
359
354
352
349
348
349
352
354
353
349
343
341
339
337
339
342
345
345
347
347
346
344
342
339
339
340
343
345
346
346
344
342
341
340
340
342
344
344
345
345
345
342
339
339
339
341
347
351
350
349
348
344
340
343
359
386
418
456
494
531
566
588
601
577
528
475
426
395
386
378
369
354
330
306
288
279
277
275
276
279
281
284
286
290
299
312
325
333
341
345
347
347
347
347
350
354
357
359
360
360
359
359
359
357
357
359
364
366
366
366
365
360
358
358
360
364
368
370
372
370
368
366
364
365
364
366
371
374
376
375
374
372
371
369
369
372
377
380
383
382
380
377
375
373
374
379
385
386
387
386
384
383
383
383
384
389
393
397
397
398
398
396
396
396
399
404
408
411
411
409
409
409
411
413
417
420
425
429
429
431
433
431
427
430
433
438
442
444
447
447
445
444
443
445
445
446
451
453
449
445
441
438
435
432
431
430
429
427
423
419
412
406
401
398
398
397
396
394
389
384
379
372
368
369
370
371
372
373
371
369
365
363
361
359
361
365
368
367
363
359
357
354
351
352
356
359
361
362
362
360
359
357
356
357
358
361
364
365
363
361
357
356
354
356
358
361
364
364
363
361
357
356
356
358
360
363
366
366
366
365
362
356
354
355
358
361
364
366
365
363
360
357
357
358
360
364
365
365
364
362
359
358
358
359
360
363
364
364
363
360
358
357
357
357
357
360
361
362
361
359
358
356
356
355
357
359
362
362
358
356
355
355
354
354
355
358
359
359
360
358
357
356
355
357
359
360
362
361
359
357
355
352
350
352
356
358
360
361
359
357
355
354
352
351
353
354
357
357
358
358
354
351
352
353
354
357
358
358
357
355
354
354
355
357
361
363
361
359
358
355
351
347
349
351
355
359
360
360
358
357
355
355
356
357
361
366
368
368
369
371
371
368
365
365
367
371
375
378
379
379
378
376
377
380
382
382
382
382
380
377
372
368
369
370
371
371
370
368
365
362
360
359
359
358
360
362
361
361
358
355
354
355
356
357
359
358
358
358
357
355
355
355
357
359
361
362
363
362
361
358
356
355
355
358
361
363
365
365
363
364
363
361
363
364
365
373
390
416
447
480
512
546
582
609
622
591
539
480
428
399
390
382
377
367
350
327
311
301
294
289
290
294
297
305
310
316
326
333
339
344
348
354
360
366
372
376
377
375
374
373
372
372
374
377
381
383
382
380
378
377
377
378
381
384
388
389
387
384
381
379
379
380
380
385
388
390
391
390
387
386
384
385
386
388
392
396
395
391
390
388
387
389
392
396
400
402
401
399
397
394
393
394
396
400
405
409
408
406
405
405
407
409
412
417
419
422
422
421
419
418
417
421
426
429
435
437
437
437
437
436
438
440
444
448
451
450
452
453
453
452
453
456
459
463
466
468
466
463
460
460
458
458
459
458
458
456
450
443
438
434
431
428
427
428
427
424
421
414
407
402
400
398
397
398
396
395
391
387
383
379
377
377
377
378
380
380
377
375
371
367
367
369
371
374
376
374
370
369
367
365
368
371
372
375
376
375
374
373
369
367
368
370
372
376
380
379
375
374
372
369
370
373
375
378
378
376
373
371
369
369
371
371
373
375
377
376
373
370
368
369
370
371
373
376
379
379
377
372
369
369
369
368
370
373
374
374
372
371
368
368
368
369
370
371
371
371
370
366
366
365
366
368
371
373
374
374
370
366
364
362
363
365
369
370
371
370
368
367
365
364
364
367
371
373
373
371
369
367
364
363
365
364
366
369
368
368
367
365
363
360
360
363
366
367
367
369
369
365
362
362
362
365
369
371
370
367
364
362
359
361
363
365
370
373
372
368
365
362
358
358
361
366
369
372
371
368
364
360
358
359
362
366
372
374
374
374
373
370
370
372
377
380
381
381
377
374
375
375
377
381
383
386
389
390
391
386
378
376
377
379
379
379
381
381
381
377
373
370
369
368
369
371
371
372
371
368
366
361
360
360
362
363
366
368
368
365
360
358
356
356
359
363
365
365
364
360
357
358
358
357
359
364
367
368
368
365
361
357
357
360
365
371
372
373
374
373
378
393
416
448
483
521
558
588
608
605
564
513
461
419
403
403
400
394
381
359
336
317
304
299
298
300
303
306
309
311
312
318
324
332
342
350
359
366
369
370
369
367
368
371
377
379
380
381
381
379
376
373
373
374
377
381
383
385
385
382
380
380
379
379
381
384
386
388
387
385
383
379
379
382
384
387
390
391
388
386
384
384
384
387
389
392
395
396
396
394
393
392
392
393
397
402
405
406
404
400
397
399
401
402
403
407
411
412
413
411
408
407
408
411
415
419
424
426
427
426
425
424
425
429
434
438
442
442
442
442
443
441
444
447
454
456
458
459
456
453
451
450
449
451
453
454
454
450
447
443
439
435
432
432
431
430
425
422
417
411
407
403
400
400
400
400
399
397
393
387
382
379
377
377
380
381
381
378
375
372
367
365
364
367
371
373
374
372
370
365
361
359
358
362
366
370
371
370
367
364
362
362
362
366
368
370
371
370
370
368
366
364
366
370
373
376
376
374
372
370
368
367
369
370
373
374
374
372
369
367
366
366
366
367
370
372
373
372
370
367
365
364
365
368
371
372
372
368
366
365
362
362
362
366
368
369
368
369
368
364
362
363
364
368
370
369
373
371
367
363
360
359
360
363
367
367
366
365
362
359
360
362
363
365
366
368
367
366
364
362
359
360
363
363
365
367
367
364
360
360
360
361
364
366
367
369
368
366
366
364
362
363
366
368
368
366
364
363
362
360
358
360
362
366
367
367
367
366
362
359
359
360
360
365
367
368
366
364
364
362
364
366
370
375
380
383
380
378
375
371
372
376
381
388
392
391
387
385
383
380
379
379
381
383
385
386
383
377
374
370
368
368
369
372
373
372
370
367
363
359
358
359
361
362
364
365
364
363
362
361
359
361
363
364
365
365
364
364
360
358
359
361
364
366
369
369
367
365
363
359
359
361
364
368
372
373
372
370
369
364
365
378
403
435
470
504
537
569
593
611
593
547
497
449
416
405
398
390
377
359
340
324
311
306
304
302
300
301
305
307
308
316
326
336
347
353
358
360
362
363
366
371
374
376
377
376
374
372
372
371
372
374
378
381
384
382
380
380
381
379
379
379
381
385
387
385
383
382
380
378
379
384
385
388
390
390
387
384
381
381
384
386
390
392
393
392
390
388
386
384
388
391
395
399
400
399
397
396
392
390
394
399
404
409
411
410
407
404
403
402
405
409
414
417
421
421
420
419
419
421
423
428
433
437
439
437
437
436
437
438
441
443
448
452
451
449
450
451
450
451
454
456
458
458
457
456
452
447
442
439
438
438
439
438
435
431
425
417
412
409
407
406
406
406
403
399
393
387
383
382
381
381
382
382
381
379
376
372
368
366
368
370
369
370
373
373
368
363
360
361
362
365
369
370
369
368
367
365
364
365
366
367
369
370
371
370
368
365
363
363
365
369
372
374
373
371
370
369
368
368
367
370
371
372
372
371
368
367
367
366
369
370
371
374
372
370
368
367
364
364
368
369
372
373
372
370
368
366
365
365
367
370
372
371
369
366
363
363
362
363
366
369
371
372
370
366
363
360
357
360
363
366
368
369
367
365
362
360
360
362
365
368
371
372
371
368
365
362
359
361
360
361
363
368
368
365
362
361
360
361
364
365
366
365
364
362
361
360
359
361
364
368
368
368
367
362
358
357
358
358
361
367
367
367
367
365
362
361
361
360
361
364
365
366
366
364
362
360
358
359
364
368
368
368
366
363
360
359
359
362
364
366
368
365
365
364
361
358
359
362
366
369
373
373
370
369
369
370
374
378
380
379
379
380
379
378
378
380
383
385
388
390
389
387
384
380
377
377
378
378
378
381
381
378
373
369
367
366
366
369
372
374
372
367
365
362
359
356
358
361
365
367
367
367
365
361
359
359
361
363
366
369
369
367
364
360
358
357
359
361
364
367
367
366
365
362
361
363
365
368
368
371
372
369
376
393
419
451
487
524
566
601
626
629
588
534
473
422
399
394
393
386
370
344
321
305
293
287
287
294
302
307
311
312
316
323
331
339
348
356
362
367
371
374
375
374
374
376
376
378
382
383
383
384
383
380
377
374
378
381
382
387
389
387
385
384
382
380
382
386
390
392
392
389
386
384
383
383
385
388
390
394
394
393
392
390
388
390
394
396
398
399
398
397
396
395
394
396
401
405
408
408
408
408
406
405
404
404
406
411
415
417
419
421
419
417
416
418
422
428
432
435
435
434
431
431
435
437
438
443
449
452
453
453
452
451
453
457
461
464
466
469
469
468
466
464
464
464
465
467
469
465
462
458
452
447
443
439
441
441
439
436
432
426
418
414
408
404
404
405
407
408
405
401
395
390
387
385
385
387
387
386
383
381
379
377
375
373
375
378
379
379
377
376
373
370
368
370
374
375
377
377
376
373
371
370
368
369
372
374
378
380
376
373
370
369
371
372
374
378
378
378
378
377
375
372
371
372
375
378
379
379
377
373
371
368
369
373
375
377
378
377
376
374
370
368
366
366
370
374
375
373
369
368
366
366
369
368
370
375
375
374
372
367
362
362
367
371
372
373
372
371
370
368
366
365
366
367
369
370
369
368
367
364
362
362
362
364
369
371
372
372
369
366
362
359
360
361
363
367
372
371
369
364
360
358
359
362
365
370
372
370
367
362
360
360
361
362
365
367
369
368
365
363
358
356
358
362
364
367
369
368
364
361
361
360
360
362
364
365
366
365
362
362
362
362
362
362
364
366
366
367
366
362
361
359
360
364
364
367
370
370
369
367
365
364
366
373
377
380
380
377
371
367
368
370
373
379
385
388
388
385
382
378
376
375
376
379
384
383
381
377
375
372
368
366
367
370
371
369
368
367
365
361
359
358
360
363
363
363
363
359
358
357
355
355
357
359
360
362
363
361
357
354
352
352
353
356
360
363
363
361
357
354
351
352
357
362
366
370
369
366
366
363
362
368
386
413
449
485
519
553
583
603
604
567
520
470
428
407
401
395
383
365
343
327
313
305
300
297
296
294
295
299
299
303
314
328
339
346
352
357
360
359
359
361
366
370
374
376
375
370
369
369
368
370
372
377
378
380
380
378
377
375
376
375
376
379
381
382
383
380
378
376
375
375
377
379
382
384
383
382
381
380
380
382
385
387
388
390
391
390
386
383
384
385
389
393
396
397
396
395
394
392
392
395
398
401
403
405
404
402
400
400
402
405
408
411
414
416
417
416
416
415
416
421
428
432
435
438
437
436
434
431
431
435
442
445
447
447
445
444
444
444
446
448
451
453
454
453
451
447
444
442
442
441
441
439
435
431
427
422
417
412
407
404
403
404
404
401
397
391
387
383
382
382
380
378
377
378
375
370
366
362
363
367
370
372
371
368
365
364
363
360
358
360
364
368
368
367
365
362
359
360
362
363
367
369
368
367
366
365
362
361
361
363
366
369
371
371
369
367
362
361
363
365
368
370
373
372
369
366
365
364
365
368
370
371
372
371
368
365
363
361
362
366
369
372
372
371
370
365
362
362
364
366
367
370
370
368
367
366
362
361
362
364
367
369
369
367
366
364
362
363
365
365
367
370
369
366
362
360
360
361
364
367
370
370
370
367
362
360
359
357
359
363
368
369
368
366
364
363
360
359
359
359
361
364
364
361
361
363
362
361
363
366
367
368
368
366
365
364
363
363
364
366
370
371
369
367
363
361
361
361
361
363
366
367
366
366
364
362
361
363
364
367
368
367
364
363
363
361
359
360
361
363
367
367
366
366
367
366
366
367
373
379
382
386
386
384
381
375
371
372
375
381
388
393
392
388
386
384
382
382
382
385
388
390
388
385
379
374
370
370
371
371
373
375
373
370
367
362
361
362
364
368
371
371
371
368
364
361
360
362
364
367
371
372
368
366
363
360
359
360
364
367
369
370
366
362
361
358
359
363
366
368
371
373
372
370
366
361
360
363
373
393
421
453
488
522
556
589
614
625
593
544
489
439
409
399
392
384
370
349
330
317
307
301
297
296
297
300
305
309
316
328
340
348
354
357
358
362
365
370
375
379
382
384
381
378
377
378
379
380
383
387
389
388
388
387
385
383
383
386
390
392
395
396
394
391
388
386
386
388
389
390
393
395
394
391
389
389
390
393
396
398
400
401
399
397
396
393
393
395
399
404
407
407
406
405
404
403
402
406
411
414
417
418
418
416
415
416
416
419
421
425
428
429
428
425
424
426
430
435
440
443
446
448
448
446
445
445
446
449
454
457
460
463
462
462
461
461
464
466
468
471
474
472
470
466
463
462
462
462
461
460
456
453
449
442
436
432
430
429
428
427
425
422
417
410
406
403
401
401
401
399
397
393
389
386
384
382
381
383
387
389
391
388
382
378
377
377
380
382
384
386
385
383
379
375
373
374
378
382
384
386
386
384
381
378
376
377
379
382
385
387
387
385
381
378
377
377
379
382
385
387
388
388
385
382
380
378
379
385
388
390
391
388
385
381
377
376
377
382
385
386
384
380
378
378
377
377
379
381
384
385
382
378
376
374
374
375
378
381
384
386
384
382
379
377
375
375
377
381
383
385
385
382
378
375
375
376
379
382
385
386
385
381
377
371
369
371
373
377
379
380
379
377
374
372
371
372
374
377
379
380
379
378
377
375
375
377
381
381
382
382
382
381
378
376
375
376
378
381
384
384
382
380
376
374
373
374
376
379
382
382
381
380
378
376
374
375
377
379
380
379
379
379
378
375
373
375
379
381
381
381
380
378
378
378
379
379
381
383
384
382
382
380
379
379
380
383
386
389
390
391
393
394
392
389
387
387
388
392
395
397
400
400
397
396
399
402
405
406
405
403
400
397
392
389
389
388
390
393
394
394
392
388
385
381
377
378
379
380
383
381
377
375
375
375
375
375
378
380
380
377
375
373
372
371
371
373
376
379
380
382
380
378
375
374
376
379
382
384
383
383
382
382
380
378
379
381
383
387
401
424
451
481
513
548
586
617
637
618
569
515
461
424
411
406
398
387
368
349
331
316
308
303
302
306
310
318
326
331
337
346
353
359
365
369
376
382
385
388
391
392
391
389
386
386
388
391
393
394
396
395
395
392
391
390
390
394
398
401
401
399
396
393
390
390
392
394
396
400
404
403
400
398
395
396
398
401
405
406
408
408
406
403
401
403
405
406
409
411
412
412
410
408
407
409
410
412
415
416
417
417
416
415
414
415
416
419
422
425
427
428
426
423
425
427
432
438
443
445
446
446
447
448
446
445
448
453
458
462
464
466
465
465
464
464
466
467
469
471
472
470
470
468
465
465
466
467
468
466
463
457
451
445
441
437
435
434
433
431
429
424
418
413
407
405
404
407
407
404
401
396
394
391
390
390
388
386
388
389
387
384
382
380
377
377
380
383
384
384
384
379
376
375
375
375
377
380
382
384
382
379
376
374
373
374
376
380
382
386
390
386
380
376
375
377
379
381
386
387
387
384
381
380
379
378
378
380
383
384
382
380
376
376
375
376
380
383
384
385
385
381
377
376
377
378
380
380
381
381
379
376
375
372
372
375
380
382
382
382
380
377
373
371
371
374
376
378
381
381
379
376
372
367
367
370
373
376
378
378
377
375
374
371
368
370
373
375
375
375
373
372
371
368
365
367
370
374
375
376
376
373
369
367
367
370
375
377
376
377
376
372
370
368
370
372
373
374
375
374
371
369
368
367
368
370
371
373
374
372
371
368
366
364
364
367
369
372
374
371
370
369
368
369
368
369
374
377
379
377
374
371
369
368
370
370
371
373
374
375
373
371
369
368
371
375
381
385
388
388
385
382
378
376
378
382
386
393
396
393
391
390
387
384
380
381
385
388
391
391
388
384
380
377
377
377
378
379
380
379
376
373
370
366
366
368
370
371
372
371
368
366
364
363
365
367
371
372
372
371
367
364
363
362
363
365
369
371
369
368
368
365
362
363
365
369
374
377
378
376
371
369
367
366
375
396
427
460
492
525
558
586
607
611
579
534
483
440
419
414
408
396
382
361
342
331
323
317
315
311
307
306
307
308
313
324
335
347
357
360
363
365
367
371
375
380
383
385
387
386
386
384
383
385
388
391
393
394
393
389
387
386
386
387
388
391
394
395
395
395
392
389
388
387
388
392
394
398
398
398
396
395
395
397
399
403
406
408
405
402
400
398
398
400
404
408
411
413
412
409
405
403
405
407
411
415
419
420
418
417
416
415
416
420
422
425
429
432
431
430
429
429
431
433
436
441
446
449
450
448
447
448
449
452
456
459
464
467
466
462
461
461
462
463
467
471
473
473
470
468
464
460
457
455
455
457
457
456
452
447
440
435
430
427
426
426
425
424
420
416
410
405
403
403
403
404
402
400
397
393
390
388
386
386
387
389
389
389
387
385
382
381
380
380
382
385
387
387
386
382
378
377
378
380
383
385
386
388
388
385
382
381
382
385
388
390
391
390
388
385
382
381
382
383
386
388
389
389
387
385
383
381
381
383
386
388
389
387
386
383
382
381
382
384
387
390
390
387
384
382
380
377
378
380
385
387
388
386
384
384
382
381
380
382
385
386
386
385
383
381
379
378
378
381
385
387
386
385
383
380
378
376
378
381
384
385
385
384
382
378
377
375
375
377
380
382
385
384
383
380
379
378
379
382
385
386
386
384
382
379
378
380
381
383
384
384
384
383
380
378
375
376
377
380
384
386
387
385
382
379
377
376
378
381
385
386
386
385
381
378
377
377
381
385
387
388
389
388
385
382
378
378
381
385
387
389
389
387
386
383
381
381
380
383
384
387
387
386
384
381
378
378
380
383
387
389
390
391
390
391
392
394
397
400
403
403
400
398
394
395
400
404
405
407
411
412
412
410
405
400
397
398
401
403
404
403
401
398
394
390
388
389
389
391
392
390
389
386
384
382
382
383
385
387
389
388
386
384
384
382
380
380
383
386
387
389
387
386
384
382
380
384
386
388
389
389
389
388
384
382
383
385
390
393
394
395
392
392
401
422
450
484
521
559
601
633
653
636
587
533
475
433
418
416
411
401
382
360
339
323
314
310
312
320
325
329
334
337
342
349
357
367
377
386
392
395
398
396
395
395
396
398
402
405
407
408
407
405
403
401
402
405
408
410
411
411
410
409
408
405
406
408
411
414
416
416
411
411
409
407
408
409
413
416
418
419
417
417
415
413
413
416
419
422
424
426
424
422
420
420
421
422
426
430
432
432
432
431
430
428
431
432
433
436
439
441
441
440
439
440
441
445
449
453
456
458
459
457
457
456
459
465
470
474
476
476
476
474
472
474
476
481
484
488
490
490
489
487
486
487
486
487
491
492
492
490
484
478
476
473
472
473
473
471
469
465
459
455
449
442
439
438
439
438
437
435
428
422
418
416
415
415
416
417
415
414
410
405
403
402
403
403
404
408
408
405
403
402
400
400
400
403
406
407
408
407
406
405
404
403
403
404
407
410
411
409
407
405
403
400
403
407
410
411
411
410
408
407
406
404
401
403
406
409
410
410
409
405
403
403
403
405
408
411
411
409
408
407
404
402
401
406
410
412
413
410
407
405
402
401
402
404
407
410
410
409
404
400
399
399
400
403
406
407
405
405
403
398
399
398
396
399
402
404
403
403
400
400
400
402
404
407
409
411
410
407
403
399
398
399
402
404
406
408
408
405
403
400
398
398
401
404
406
407
406
403
401
399
398
398
400
403
406
408
406
402
399
397
398
399
402
406
407
406
405
404
401
397
396
398
402
405
407
408
406
402
397
394
394
394
395
400
402
402
402
400
398
396
395
396
398
401
403
404
402
402
400
397
396
397
400
404
408
409
408
407
407
407
410
414
418
421
421
419
415
414
412
413
418
424
426
428
431
431
430
427
420
418
415
416
419
423
422
419
415
412
408
404
403
406
407
407
409
408
405
402
400
399
401
403
405
405
405
406
405
404
402
400
400
400
401
404
406
408
407
405
403
401
399
400
403
406
407
405
404
402
400
398
399
403
407
410
410
409
408
405
410
428
454
489
526
563
600
631
654
658
618
567
510
466
446
442
438
428
412
388
368
352
342
337
336
339
343
346
349
351
354
360
367
377
387
396
403
408
410
408
408
410
413
415
418
421
422
420
420
418
415
417
421
422
424
427
428
425
425
424
421
417
417
421
426
429
432
432
429
426
424
423
424
428
430
432
432
431
430
427
428
428
430
433
435
437
439
439
438
435
433
432
434
438
440
442
443
444
445
443
442
442
444
446
447
449
449
449
450
450
448
450
454
459
464
466
468
466
466
466
465
467
470
474
477
481
484
485
485
484
482
484
486
490
495
495
495
495
493
495
497
499
501
502
504
506
507
504
496
491
487
483
483
481
481
478
473
468
463
457
454
450
449
448
447
445
442
436
432
427
424
423
424
426
426
425
422
418
414
410
406
405
406
410
413
415
414
412
408
406
407
409
411
413
412
411
411
410
408
406
407
408
408
410
413
415
415
412
409
406
405
405
407
411
414
415
414
413
410
408
407
409
409
411
413
415
415
412
410
408
408
410
409
411
411
410
411
411
410
411
409
408
410
412
415
415
413
411
408
403
402
403
404
407
410
411
410
408
405
404
403
402
404
407
408
410
410
406
402
400
398
402
405
406
408
408
406
403
399
397
398
402
404
406
407
407
404
402
400
399
400
403
405
406
405
406
407
402
399
398
401
402
402
406
407
405
404
402
400
400
399
399
402
404
405
405
404
403
400
397
398
398
400
403
404
405
403
402
402
403
403
399
400
403
404
404
402
401
400
399
400
401
402
404
405
402
402
401
399
398
398
399
402
408
410
411
411
409
406
406
407
410
412
416
416
414
412
411
410
413
418
422
426
428
428
426
421
417
413
412
412
416
419
419
417
416
414
410
406
403
405
406
408
409
410
407
403
400
397
396
397
399
401
402
401
401
399
397
395
395
396
400
403
405
402
397
397
399
395
393
397
401
404
404
403
403
401
398
397
399
402
407
411
412
411
409
406
407
419
443
475
510
548
584
617
640
649
622
574
522
478
452
450
449
442
429
408
385
367
353
346
343
342
344
347
351
354
354
354
360
371
382
394
402
406
409
411
412
411
413
417
421
424
426
425
424
422
420
419
420
422
424
427
429
431
430
428
427
426
427
429
429
431
433
433
433
430
428
429
429
432
435
436
436
435
435
433
431
429
432
435
439
442
444
445
444
441
438
438
441
443
447
450
451
450
449
447
446
447
447
450
455
458
461
463
461
460
460
460
462
466
468
471
473
473
475
474
475
477
478
481
487
491
493
494
494
494
492
493
496
499
504
508
508
506
505
504
502
501
503
505
508
509
509
506
503
498
495
492
488
486
487
487
485
480
473
467
461
456
454
457
460
459
455
452
447
442
438
437
437
437
437
437
436
434
430
427
424
423
424
427
430
429
425
421
420
418
418
418
420
424
425
426
428
427
425
422
420
421
422
422
423
424
424
424
421
421
422
422
424
428
431
434
434
432
429
427
426
425
427
430
433
434
431
428
424
423
422
423
425
428
429
430
429
427
426
422
420
421
424
427
429
431
430
425
420
417
416
418
421
426
430
431
429
427
426
423
422
423
426
428
429
430
429
425
422
421
420
421
424
426
428
429
428
425
423
420
419
418
420
424
428
429
427
425
422
419
417
418
420
424
426
426
425
422
423
424
424
423
425
427
428
427
426
424
423
420
420
421
424
427
429
428
426
424
422
419
420
423
425
428
431
431
430
427
423
422
421
423
425
427
429
429
430
428
424
421
423
425
427
428
428
427
425
423
422
421
420
422
426
430
432
432
432
429
426
424
424
424
426
428
429
430
428
426
423
422
424
427
431
435
438
438
439
440
439
440
442
441
439
438
440
443
444
446
446
444
445
448
452
452
452
449
446
444
443
443
442
442
443
444
444
442
437
433
431
429
429
429
431
433
432
429
427
425
423
423
424
425
429
432
433
431
428
425
423
422
423
425
429
431
430
429
425
425
425
425
427
430
432
434
434
433
431
430
429
429
430
431
434
437
437
442
459
484
515
551
590
632
668
695
699
658
603
541
489
465
459
454
444
429
406
384
368
358
352
349
354
361
370
377
381
386
393
400
408
415
421
431
438
441
442
442
442
441
440
441
444
447
450
453
453
451
448
445
445
445
447
448
450
453
453
451
448
447
447
449
451
455
457
457
455
456
455
452
452
455
457
461
462
463
463
461
459
457
456
457
459
462
466
468
467
465
463
460
460
463
466
468
471
473
474
474
472
471
472
473
475
479
484
485
485
485
485
484
485
489
493
497
500
503
504
504
503
503
502
504
508
514
519
522
521
520
519
519
521
525
529
534
537
537
533
530
528
526
526
527
530
534
535
533
530
526
519
513
511
509
508
508
506
505
500
493
487
481
478
477
477
476
476
473
468
463
458
455
452
451
452
453
454
453
452
448
445
443
442
443
444
447
450
449
446
443
441
440
440
442
443
442
443
448
449
447
443
439
439
442
444
448
448
448
446
444
442
441
442
443
447
450
451
451
449
447
444
442
442
443
446
449
451
450
447
445
444
444
444
446
449
451
453
451
447
443
439
439
441
442
445
449
451
449
446
443
440
440
440
441
444
447
448
447
445
443
438
437
438
442
445
447
448
447
444
442
440
439
439
441
444
446
447
445
442
440
438
434
435
437
440
444
448
448
445
441
438
437
438
438
441
443
444
444
443
442
440
439
439
441
444
445
445
445
442
440
438
437
438
440
443
446
447
445
441
436
434
435
436
440
445
446
445
442
439
435
434
434
436
440
442
445
446
444
440
438
437
438
440
444
448
449
446
445
442
438
434
436
439
441
443
445
443
441
439
437
436
437
438
439
443
444
443
443
440
436
436
438
441
444
447
449
450
450
451
453
452
450
449
449
452
454
455
456
459
460
460
461
464
467
467
464
461
458
456
454
453
452
454
456
454
454
451
445
442
441
440
439
442
444
446
446
444
442
441
438
434
433
435
439
441
440
438
435
433
431
433
434
437
439
441
441
440
440
439
437
436
436
438
441
442
442
442
441
439
439
440
440
441
444
447
447
450
464
485
512
544
579
616
654
682
698
672
624
567
514
481
472
469
465
454
432
410
394
381
373
368
368
371
377
385
390
393
394
399
406
415
424
434
443
448
450
450
449
448
446
447
450
453
455
456
457
456
454
453
452
452
454
457
460
461
461
460
459
456
453
453
456
457
459
462
463
462
460
457
456
455
461
466
468
471
471
468
466
463
460
460
463
468
471
473
472
470
469
467
466
467
470
473
476
478
478
477
475
475
475
476
479
483
485
487
487
487
486
483
482
486
493
499
502
503
503
504
503
502
504
507
511
515
519
520
521
522
522
521
520
523
525
528
530
533
532
532
530
528
528
528
529
531
532
531
527
524
518
513
509
506
506
504
503
500
497
492
488
483
476
473
474
477
475
473
470
464
458
454
451
450
450
451
452
452
450
447
443
440
438
440
442
444
444
443
442
440
439
437
436
437
440
441
443
443
441
439
437
435
435
437
441
445
447
447
446
443
440
440
440
441
442
442
445
448
447
445
440
437
438
440
442
445
447
446
444
440
438
436
436
439
442
444
447
445
442
439
437
436
437
438
439
441
442
442
440
437
436
435
435
438
442
442
441
441
439
439
437
436
436
438
439
438
439
439
437
435
435
433
432
432
434
438
440
438
436
435
432
430
431
432
434
436
437
438
436
432
429
429
430
431
433
436
439
436
434
431
430
432
434
437
439
439
438
438
437
433
430
429
430
433
435
436
437
437
435
431
428
428
428
430
434
436
437
437
434
430
428
427
428
430
434
436
437
437
435
432
430
429
429
432
435
435
435
435
434
434
433
432
432
433
435
437
438
436
435
433
433
434
437
442
446
449
450
449
447
446
442
441
442
445
451
457
460
459
457
456
453
450
449
449
451
455
457
455
452
448
444
443
444
444
443
445
444
441
439
437
434
432
435
438
441
441
441
440
438
435
434
432
433
436
438
439
439
438
435
433
432
432
434
437
439
441
440
436
434
431
430
432
436
440
443
441
441
440
438
436
436
439
440
444
459
482
510
540
571
603
637
667
689
677
635
584
532
493
478
473
466
457
443
423
406
392
383
376
371
370
370
375
383
391
398
407
414
421
423
427
432
436
442
447
453
457
456
454
452
452
452
451
455
460
465
464
463
462
458
456
455
456
460
463
464
466
465
463
460
458
459
460
463
467
470
472
470
467
464
461
461
463
465
469
472
474
472
471
471
471
471
471
476
480
481
481
480
477
476
475
477
481
484
486
489
489
488
486
484
485
487
489
494
497
498
500
501
500
498
498
501
504
508
512
514
516
516
516
518
518
520
525
529
532
534
535
536
536
534
533
535
537
541
545
547
546
543
540
538
538
538
539
539
538
535
530
525
521
516
511
510
510
509
507
503
497
492
486
481
478
475
474
476
477
477
475
470
466
463
461
460
461
464
464
463
462
459
455
453
451
451
452
455
458
458
456
455
452
450
449
450
454
457
460
460
458
456
453
450
450
452
455
458
459
459
459
455
452
450
450
452
455
460
463
461
458
456
455
455
455
456
458
461
462
461
457
455
454
452
453
454
456
458
461
461
458
455
453
451
452
454
457
459
460
459
458
455
451
450
450
452
454
456
458
458
455
453
452
450
452
454
455
455
454
455
454
451
450
450
449
450
453
455
456
455
453
451
449
449
451
453
455
457
458
456
454
451
447
447
449
452
454
456
458
457
453
451
448
446
449
453
455
455
454
454
453
452
449
449
449
451
453
454
455
455
452
450
449
448
450
453
456
458
460
458
455
453
451
449
450
452
455
457
457
455
452
450
449
449
450
453
457
458
458
456
455
453
450
449
450
454
456
457
457
455
452
449
449
451
452
454
456
458
460
458
456
453
453
454
456
458
460
460
459
457
455
452
449
451
454
458
461
463
465
465
465
464
465
466
467
469
472
472
470
469
468
471
472
474
475
478
480
480
478
474
471
469
470
470
471
474
476
475
472
466
461
458
457
458
461
462
463
462
460
458
454
451
450
451
453
456
459
459
458
455
452
449
449
451
452
453
456
458
458
457
456
452
450
450
453
456
458
459
458
456
454
452
454
457
461
464
467
466
464
468
483
506
538
574
612
653
689
716
725
689
635
574
520
495
489
487
480
464
441
418
401
389
383
382
387
395
398
401
403
405
412
419
429
440
451
460
466
468
468
467
466
465
467
470
474
477
480
480
479
477
474
473
473
476
480
482
483
482
481
479
477
477
477
479
483
485
484
482
482
482
479
478
478
478
482
484
488
490
489
486
481
480
482
486
487
489
492
494
495
494
492
491
491
493
495
499
501
502
502
499
497
498
499
502
506
509
511
512
510
508
508
508
511
514
518
522
525
527
527
527
526
527
530
534
537
539
542
545
547
547
546
546
548
549
552
556
558
561
562
559
558
558
559
559
561
562
561
559
556
552
547
542
539
540
540
539
536
531
524
517
510
507
506
505
505
506
504
501
495
490
487
486
485
484
484
486
486
484
480
474
471
472
473
474
476
477
476
474
472
469
467
466
467
471
472
474
475
474
473
470
468
468
469
472
473
474
473
473
472
471
471
470
469
471
474
476
475
473
471
469
469
470
473
476
478
478
477
476
474
472
471
470
471
472
474
476
475
473
470
468
466
467
470
470
472
475
475
472
468
465
462
463
464
467
470
472
471
470
469
468
467
470
471
472
473
473
469
467
464
463
462
462
466
471
472
473
473
471
468
464
462
463
465
467
468
469
469
467
465
462
461
463
466
469
470
471
470
467
461
457
457
459
462
467
469
472
471
468
466
463
461
460
461
466
469
469
468
465
463
462
463
463
466
467
469
468
466
466
464
462
461
462
465
468
469
467
467
465
464
461
459
460
464
466
467
467
464
463
463
462
461
461
465
470
471
468
465
461
460
458
458
460
463
466
466
467
469
467
464
462
462
464
468
467
465
466
465
463
459
458
457
459
463
467
468
469
468
464
461
461
464
467
472
476
478
479
477
473
470
469
470
474
480
486
489
488
487
485
481
478
477
478
480
483
484
483
480
475
471
468
469
468
471
473
473
469
466
462
458
453
454
458
461
462
463
463
461
457
455
453
453
455
460
464
464
462
460
458
455
455
455
459
462
464
463
462
461
458
457
455
456
459
463
467
468
467
466
463
461
459
463
477
502
532
565
599
630
662
687
704
686
644
596
547
511
501
495
487
475
456
436
424
414
405
399
393
392
394
396
400
404
411
420
431
442
448
451
453
455
459
463
468
470
469
470
470
469
470
468
468
469
471
473
476
476
475
475
471
469
471
474
479
481
481
480
480
476
473
472
472
474
475
477
481
483
483
482
481
481
480
481
482
486
487
487
486
486
484
482
482
484
489
492
493
493
491
489
487
486
489
492
494
498
501
501
500
498
497
496
497
500
504
510
514
515
515
514
511
510
512
516
520
524
527
530
529
528
529
531
533
535
538
541
543
543
543
543
542
543
545
548
551
552
552
551
549
546
544
542
541
539
539
539
537
534
531
524
519
516
513
513
513
511
509
504
497
491
485
480
480
482
482
482
480
478
475
471
468
467
467
469
469
469
470
469
464
460
459
458
461
465
466
467
466
464
463
461
459
458
461
465
466
467
467
466
465
463
460
458
460
464
469
471
472
471
469
467
462
461
463
467
469
471
471
470
468
466
464
465
466
469
471
473
473
470
468
467
465
465
466
469
471
472
472
469
466
465
463
461
460
462
468
471
470
469
468
466
464
464
466
468
470
471
470
469
467
463
462
463
465
469
471
471
470
468
465
462
462
464
466
469
469
469
468
465
463
461
461
462
464
467
468
470
468
466
462
461
460
461
464
467
470
472
471
469
465
462
461
464
467
469
470
471
469
466
464
464
464
465
466
468
470
471
470
467
464
463
463
464
467
468
470
469
465
464
464
463
462
463
466
469
471
471
471
470
467
465
463
464
465
468
471
472
472
470
466
465
465
467
470
473
474
474
471
468
466
465
465
467
470
471
472
473
472
471
470
470
472
476
482
486
489
489
486
481
477
476
477
483
490
493
494
493
491
489
488
483
483
485
488
491
492
491
487
481
476
476
476
476
478
479
478
476
473
469
466
465
464
466
469
471
472
470
468
466
465
464
465
467
469
471
471
470
466
462
460
460
463
466
468
471
472
471
469
468
466
464
466
469
473
477
478
476
474
473
469
469
479
503
535
570
606
640
676
705
727
720
673
622
568
526
512
505
496
482
462
437
421
408
402
400
401
403
404
407
410
412
421
433
444
455
462
466
469
470
472
474
479
483
485
487
489
488
486
485
484
485
487
491
493
494
495
494
490
487
487
487
489
492
495
497
498
496
494
492
490
489
490
492
496
498
499
498
495
492
492
493
496
499
501
502
503
503
503
501
500
503
505
507
510
510
510
509
508
507
505
508
510
514
518
521
521
519
516
515
517
519
523
526
529
531
533
532
531
532
532
534
537
542
548
551
551
551
550
551
550
548
553
559
565
568
568
568
566
567
567
569
571
574
577
578
577
574
569
565
562
560
560
560
559
558
553
547
541
537
532
529
529
526
523
522
521
516
507
502
499
500
501
500
500
497
492
491
489
488
487
485
487
490
491
489
487
484
480
480
480
481
484
486
487
486
486
483
481
480
481
483
485
487
487
487
486
483
479
477
479
482
485
488
489
490
489
488
486
482
482
483
486
487
489
489
487
484
482
481
480
483
486
487
487
486
485
484
481
478
478
481
483
488
490
489
486
483
481
479
481
485
488
490
488
486
485
482
479
477
478
481
483
485
486
486
483
480
477
476
477
479
482
485
486
485
484
481
479
477
475
477
481
482
482
481
480
478
477
475
475
477
479
482
483
482
479
478
477
477
478
479
481
483
484
483
483
480
477
474
476
479
482
483
484
483
480
477
476
476
476
478
481
482
482
481
479
476
473
473
475
479
482
483
483
482
478
474
474
475
477
478
481
482
482
484
482
478
476
476
477
479
483
483
480
479
478
477
476
477
478
480
479
480
481
480
477
475
473
473
475
478
481
481
481
479
477
476
473
473
477
481
484
485
487
487
486
485
484
488
492
496
495
494
494
493
493
493
494
497
496
499
503
502
500
498
495
493
491
491
492
492
493
494
491
488
482
479
479
479
479
481
483
481
478
476
473
470
470
469
471
473
474
476
476
477
476
475
472
472
474
475
477
478
477
475
472
470
470
472
475
477
478
477
477
475
473
471
472
474
478
479
480
480
476
480
494
515
546
582
619
658
696
723
737
704
649
592
541
512
509
508
501
486
463
440
422
410
403
402
404
409
414
418
422
424
429
436
444
454
460
469
476
479
480
479
479
478
479
481
485
488
490
491
491
488
487
485
486
487
491
494
493
489
488
487
486
485
484
488
492
493
497
497
495
492
492
491
492
494
497
499
500
500
498
496
496
495
496
499
500
503
504
504
503
502
500
500
502
504
506
509
511
511
511
510
508
507
507
509
512
516
517
518
516
516
515
516
521
526
529
534
536
536
535
533
534
535
538
542
546
548
551
553
553
552
551
553
554
557
560
564
566
565
564
563
561
559
561
564
565
566
564
559
555
553
548
544
543
543
543
542
538
533
528
525
519
513
511
511
511
509
506
501
497
493
489
486
485
487
488
487
485
482
479
475
473
473
471
474
477
478
476
475
473
471
468
466
466
470
473
474
474
474
473
470
466
464
465
468
474
476
473
472
471
469
468
468
469
472
475
475
476
476
473
470
469
469
470
472
474
473
473
473
469
467
466
466
469
472
474
475
474
473
471
468
466
464
465
469
472
473
470
468
466
462
460
463
466
468
469
469
468
468
466
462
460
462
464
466
467
467
466
464
462
459
457
459
462
465
467
467
465
463
460
458
458
459
461
462
463
462
461
460
458
458
457
457
460
462
464
465
463
460
456
455
455
458
461
462
462
463
461
460
458
457
457
458
458
461
462
462
462
461
458
456
455
456
457
461
464
463
462
458
458
456
455
456
457
461
463
464
462
457
453
454
456
458
461
463
465
465
464
460
458
458
457
458
462
464
465
466
465
462
460
458
457
458
462
464
466
468
466
464
463
464
466
470
474
478
481
480
478
475
471
469
470
476
484
489
490
491
489
486
482
478
476
479
482
482
483
481
479
476
474
471
469
470
473
473
473
471
470
467
464
463
463
464
465
465
465
464
462
460
457
457
459
462
466
467
468
468
465
462
459
460
462
464
467
468
468
467
467
467
466
464
465
467
470
472
472
473
470
468
466
467
479
502
532
565
600
636
671
697
717
706
661
610
559
520
506
503
497
485
467
443
427
415
408
404
403
402
402
404
409
413
418
429
440
452
460
463
465
467
467
470
472
477
481
484
484
483
481
480
480
481
482
485
487
488
488
486
483
481
480
479
482
487
490
493
493
492
489
487
487
489
492
496
496
496
495
494
492
490
491
493
495
497
499
499
499
499
498
498
496
497
499
502
506
507
507
506
504
503
503
505
508
511
514
515
516
515
514
513
514
516
518
523
527
530
532
532
531
531
531
532
537
543
548
551
552
550
548
547
548
550
554
559
564
566
567
564
561
559
560
562
565
568
571
570
569
567
563
559
556
555
555
556
556
553
547
543
538
534
531
528
527
526
525
522
519
513
506
501
497
495
496
498
497
493
491
488
485
481
481
482
483
485
485
484
483
480
477
476
475
475
478
480
482
482
480
478
477
475
475
477
479
482
483
484
483
479
477
478
479
482
484
483
483
484
482
479
478
476
477
479
482
484
486
485
483
482
480
478
479
480
481
483
486
484
482
480
478
476
477
480
483
485
485
484
482
478
476
474
475
478
479
481
484
482
479
478
477
477
477
479
481
482
483
483
482
479
477
474
473
477
480
482
481
481
479
476
474
473
474
475
478
480
479
479
479
477
475
476
476
479
480
481
481
478
474
473
471
472
476
478
480
484
483
481
477
475
471
472
475
477
478
479
480
480
478
476
474
473
474
477
480
482
481
480
480
477
474
474
474
476
478
479
479
478
475
474
473
472
473
477
481
481
480
481
479
478
476
476
478
481
481
480
481
480
478
476
474
473
475
478
481
481
480
479
478
477
476
476
477
483
483
481
479
478
477
472
470
472
475
476
478
480
482
482
480
480
482
481
484
488
490
491
493
494
494
492
489
487
487
491
496
500
503
503
500
499
500
501
501
500
499
499
500
499
496
493
489
487
488
489
487
486
488
487
483
480
480
478
480
483
484
484
483
480
477
475
475
477
478
480
481
483
480
477
475
475
474
474
477
481
483
483
481
479
477
475
474
475
480
482
483
484
484
481
479
478
479
483
485
491
507
531
561
592
626
660
695
723
741
716
664
609
556
522
512
506
499
488
471
451
434
423
415
410
408
407
410
417
422
428
437
446
455
461
466
470
475
481
487
491
496
496
494
490
488
488
491
493
495
498
500
500
498
494
493
493
494
496
498
501
502
502
499
497
496
495
495
497
499
501
503
503
502
501
499
498
500
501
501
504
506
506
506
505
504
506
509
511
514
515
513
513
511
508
509
509
511
514
516
517
518
519
521
519
518
518
519
523
527
529
530
531
530
528
528
530
532
536
541
545
548
549
548
548
548
549
551
554
558
562
566
567
567
564
565
567
567
567
571
575
575
574
572
571
570
568
568
568
568
567
565
561
557
552
546
542
539
539
538
532
528
525
521
515
511
507
504
504
504
504
503
502
499
495
490
486
486
486
487
487
485
483
480
478
477
476
479
480
480
481
482
481
480
476
474
473
474
476
479
479
478
477
474
473
472
473
474
476
478
479
480
478
476
475
475
476
477
479
482
484
483
479
476
473
473
474
476
478
480
482
481
479
477
476
474
473
475
477
480
480
478
475
472
470
470
471
471
474
476
477
477
474
471
467
466
465
467
472
476
477
476
474
471
469
468
469
472
476
477
476
473
471
467
462
462
467
470
473
473
472
470
468
467
464
462
462
466
469
470
469
468
466
463
461
461
462
465
467
467
466
466
464
461
460
459
460
462
465
466
468
468
466
464
463
462
463
467
469
470
469
467
464
460
459
459
458
461
463
464
462
461
460
458
457
456
457
460
463
463
462
461
458
457
454
454
457
460
461
463
464
463
461
460
458
458
459
463
463
463
462
462
461
458
456
456
457
461
464
465
466
465
461
459
461
463
466
472
475
475
474
470
466
467
468
471
474
478
483
485
484
481
477
472
470
471
473
476
479
479
474
468
465
464
463
464
465
466
466
465
462
456
452
452
453
454
455
456
457
457
458
456
452
450
449
451
453
455
457
456
455
455
454
450
449
451
454
457
457
456
455
453
450
448
449
453
457
460
461
460
460
458
455
461
480
508
542
577
614
647
674
694
691
652
603
552
513
499
500
494
482
466
442
422
407
397
393
393
392
393
394
396
399
401
406
416
429
438
443
448
450
450
452
454
458
461
464
467
468
468
466
463
460
460
462
464
469
471
471
471
472
470
467
467
467
468
472
475
476
476
474
471
469
469
471
473
475
475
477
477
474
474
474
473
475
476
480
484
486
483
482
479
477
477
479
481
484
487
489
488
486
485
485
485
484
487
492
495
496
495
496
496
493
492
493
497
502
505
506
506
508
509
510
512
515
517
520
525
528
528
528
529
529
528
530
534
539
541
541
541
539
538
536
535
536
538
540
542
541
540
537
534
529
524
523
526
526
522
516
513
508
502
498
494
493
493
491
488
486
483
479
474
470
468
468
469
470
470
468
463
459
456
454
453
453
456
457
457
459
457
454
451
450
450
450
452
453
454
454
454
454
454
452
452
454
455
457
457
455
453
452
451
450
450
454
457
458
460
458
458
458
456
454
453
456
458
460
461
460
459
456
453
453
453
454
457
459
460
460
458
457
456
456
457
459
461
463
464
464
461
458
456
454
454
455
457
460
462
461
459
457
455
454
455
456
459
460
460
459
456
455
452
451
452
454
456
458
458
459
458
456
454
453
454
456
456
459
460
458
457
457
456
456
458
458
458
460
461
461
458
457
456
456
457
459
460
462
461
461
460
457
454
453
454
457
460
462
462
460
459
457
456
456
457
459
462
463
462
460
458
455
456
456
455
457
461
465
465
464
461
459
457
457
458
460
462
464
464
464
463
460
459
463
465
467
470
471
473
473
473
472
473
473
473
474
475
478
478
480
483
483
482
482
483
483
483
483
483
481
478
476
472
471
473
475
476
478
475
471
468
466
464
464
466
467
466
466
467
464
461
458
458
458
460
463
465
465
464
462
458
455
456
457
460
463
464
464
464
462
459
458
458
460
463
465
465
465
466
465
462
462
464
465
465
468
468
471
483
503
529
561
597
634
672
703
724
710
662
606
549
509
497
493
489
482
465
442
422
404
392
387
388
394
401
406
412
413
417
423
431
439
445
453
463
469
473
478
477
475
473
473
475
477
480
482
484
484
482
481
481
480
479
481
484
487
488
489
487
486
485
484
483
482
482
485
487
489
489
487
484
484
485
487
491
495
496
497
494
492
492
491
489
492
497
501
503
503
501
499
498
497
499
501
504
507
510
511
510
509
508
508
510
512
514
516
519
519
519
519
517
520
523
526
529
534
538
539
538
538
540
542
544
549
553
556
560
559
559
558
559
560
561
563
567
569
571
570
567
564
564
564
564
564
565
567
564
559
555
550
544
541
539
537
537
535
530
525
519
513
509
508
509
508
506
503
501
500
497
493
488
485
485
487
487
487
485
483
480
476
473
471
474
476
476
476
477
478
475
472
471
472
473
475
478
480
480
477
474
472
471
473
473
475
478
480
481
479
478
476
474
475
476
478
482
485
486
484
482
480
478
477
479
480
482
482
481
480
478
476
475
476
477
480
481
482
482
480
478
475
473
474
475
480
484
483
481
479
478
476
475
476
477
478
480
480
478
477
476
474
474
475
478
481
482
482
481
480
478
475
474
475
477
478
479
479
479
477
474
473
472
473
475
478
481
481
481
479
475
472
470
469
474
477
479
483
480
475
474
470
468
469
472
478
481
482
481
478
477
475
474
477
480
481
482
482
481
479
477
474
473
474
476
479
481
480
479
476
473
473
475
476
477
479
481
482
480
477
473
471
473
476
478
479
480
482
481
478
476
473
472
473
476
480
482
483
481
479
478
478
477
478
482
484
487
489
488
488
488
488
491
492
493
493
492
492
493
492
495
498
497
498
502
504
503
499
496
493
492
492
491
492
494
494
494
492
489
487
483
481
481
483
482
483
484
482
480
477
474
472
473
475
479
480
480
479
478
476
474
473
474
474
476
477
479
478
476
475
472
472
474
476
480
483
483
480
478
475
474
474
476
481
484
485
487
486
485
497
519
547
584
622
660
697
726
744
720
668
610
556
522
515
512
506
494
473
447
428
414
406
405
409
414
417
422
427
429
433
438
448
459
467
475
484
488
491
490
490
490
489
490
494
497
500
500
499
497
495
494
494
496
498
499
500
502
502
500
497
496
497
499
503
504
505
505
505
502
499
499
499
500
503
506
508
508
508
508
507
505
506
508
512
514
515
515
514
512
510
510
511
514
517
520
520
519
519
517
515
516
518
522
526
529
531
532
532
533
532
531
532
536
539
543
546
547
546
546
546
545
551
557
562
566
569
567
566
566
567
567
569
572
577
580
582
583
582
580
578
577
577
579
582
583
582
579
576
570
565
563
561
558
553
550
548
544
539
533
528
525
522
521
522
521
519
515
510
506
502
499
498
498
499
499
497
495
491
487
485
484
484
485
486
488
489
486
482
480
478
480
481
482
482
482
485
484
479
477
476
477
481
483
485
486
486
486
485
482
479
480
482
485
488
489
488
486
484
484
482
483
485
486
487
488
487
486
483
481
481
481
483
484
486
486
487
486
482
481
479
481
484
487
487
487
484
481
479
477
477
477
480
484
486
487
486
484
480
479
478
478
478
479
481
483
483
480
478
476
475
475
476
478
479
481
481
479
476
474
472
472
474
477
480
481
479
475
470
468
468
469
473
475
477
479
478
476
475
474
473
474
477
479
480
479
479
477
474
471
470
471
474
478
479
477
472
471
470
469
469
470
474
475
475
475
473
472
470
470
470
471
473
473
473
475
474
470
467
465
468
470
472
474
476
477
477
474
470
466
467
469
472
474
476
477
477
474
472
469
468
472
476
478
479
477
476
476
476
478
483
484
484
484
483
481
480
480
480
484
490
491
492
495
492
490
488
485
484
486
486
486
487
488
488
485
483
480
476
473
474
475
475
476
475
474
471
468
465
465
466
467
469
470
471
470
468
465
464
463
463
465
467
468
470
469
467
463
460
460
461
464
467
469
469
470
468
466
463
463
465
470
474
476
476
475
470
467
475
497
528
562
599
637
673
697
714
701
656
606
556
517
506
507
502
490
472
448
425
408
400
398
401
404
407
410
414
413
413
419
428
440
450
458
465
468
469
469
469
471
472
476
478
480
481
478
474
473
473
472
474
479
482
484
483
482
481
479
477
477
479
482
485
486
486
484
481
480
479
479
481
483
487
490
489
489
490
488
485
484
486
492
494
494
494
494
493
492
491
491
493
496
498
499
501
500
498
495
494
497
499
505
507
508
508
507
506
503
503
505
511
517
521
522
523
525
525
523
523
525
528
534
537
540
541
541
540
540
541
542
548
553
555
555
556
553
552
551
550
552
555
557
557
556
554
550
544
541
537
536
537
537
534
529
523
519
512
508
504
501
500
499
501
500
497
492
486
480
475
473
476
478
480
478
473
470
466
465
465
465
466
466
466
465
462
460
458
456
456
457
459
462
464
467
464
460
457
455
456
458
460
464
467
464
462
459
456
454
455
459
462
463
466
469
468
464
461
459
458
460
463
467
470
470
468
466
465
463
461
462
463
464
465
465
464
462
460
459
459
462
465
467
467
465
463
461
458
457
456
459
462
464
464
464
462
460
457
457
459
462
464
463
461
459
455
453
452
453
455
459
461
461
463
464
461
459
457
455
456
457
459
461
461
461
459
456
454
454
455
456
458
460
459
459
457
453
452
453
454
456
458
459
458
456
455
454
451
451
451
456
459
460
462
461
459
457
455
454
455
458
461
461
458
458
458
455
453
454
454
455
459
460
460
460
458
454
451
450
452
456
459
460
461
460
459
456
453
454
457
460
466
468
466
464
463
465
468
470
471
472
472
472
472
473
473
475
476
477
479
482
485
485
482
477
475
472
472
472
472
472
473
473
472
468
465
464
463
463
464
465
466
466
463
459
456
455
452
455
460
464
465
466
464
461
458
456
454
455
458
461
464
464
465
462
458
457
457
458
461
465
466
466
465
462
461
459
460
462
464
465
467
468
464
465
477
499
529
562
599
638
676
704
719
697
650
596
546
513
504
501
495
483
464
440
420
405
397
394
395
400
405
409
412
414
418
424
432
441
450
458
464
468
470
470
472
471
472
474
475
479
480
481
481
480
478
475
472
477
481
484
487
487
486
485
483
482
480
483
487
490
491
491
490
487
484
483
484
486
489
492
494
494
493
491
489
490
491
492
493
496
498
498
497
496
495
493
496
497
499
502
504
506
508
507
504
504
507
509
511
513
517
518
519
517
515
515
516
521
525
530
534
535
534
532
533
534
537
541
546
549
551
551
551
552
552
551
551
554
558
562
565
566
564
561
557
558
560
563
565
566
565
562
558
553
548
546
542
540
539
538
536
531
527
521
516
513
511
509
508
506
504
499
496
491
486
484
484
485
486
487
485
481
477
472
470
471
473
475
477
478
477
477
476
473
470
467
466
468
473
475
475
475
473
471
470
471
472
475
475
477
479
477
474
472
471
471
473
475
478
479
479
478
476
474
473
473
474
476
478
478
478
478
474
474
473
473
474
476
479
481
480
477
475
470
470
472
474
477
480
480
478
476
473
470
468
469
470
474
477
478
477
477
475
472
470
469
469
472
476
476
475
472
469
467
466
469
471
472
474
475
475
473
469
468
467
467
470
471
471
471
472
471
469
467
466
467
469
471
473
474
474
472
469
467
468
468
470
474
475
473
470
470
470
468
468
471
472
474
474
474
473
472
469
465
464
465
467
469
472
472
472
469
467
464
464
465
468
471
474
474
473
471
468
465
464
466
469
474
475
473
472
471
469
468
467
467
471
474
475
473
471
470
468
465
467
469
470
472
473
472
472
470
469
469
469
473
477
480
483
485
485
484
481
479
479
478
480
483
487
488
490
490
489
489
491
494
495
495
496
495
491
485
482
481
481
480
481
481
481
480
479
476
473
470
470
470
472
473
473
473
471
468
466
465
465
467
470
472
473
469
466
463
464
465
465
466
471
475
476
476
473
467
463
463
464
469
473
475
476
474
472
471
470
469
471
473
473
477
491
513
540
572
604
640
679
712
736
723
674
618
561
519
502
497
491
482
465
444
426
412
404
398
395
397
402
409
416
422
429
437
444
451
455
461
467
474
480
483
485
485
484
482
479
479
481
485
488
489
491
491
489
486
484
486
488
492
495
496
497
496
491
487
486
488
490
493
494
495
495
494
492
490
490
492
495
498
502
504
504
502
500
498
499
500
501
502
504
507
508
506
504
503
503
504
507
509
513
514
515
514
512
511
512
514
517
521
524
525
524
523
523
524
526
529
532
535
537
540
543
543
542
542
543
545
549
554
559
561
562
560
560
561
561
564
567
570
572
574
573
571
569
567
566
568
569
570
569
568
564
560
555
551
546
542
541
541
539
535
530
524
519
515
509
505
504
504
505
504
501
496
490
488
486
484
483
485
487
486
482
479
476
473
473
475
477
477
479
479
477
475
473
473
474
475
477
478
477
476
476
473
472
471
472
473
476
478
480
478
476
474
473
471
468
470
474
478
481
480
479
475
473
470
470
474
477
479
481
479
477
475
471
469
471
472
474
477
478
477
476
474
470
470
470
470
472
474
475
473
471
469
467
466
466
468
472
475
476
475
472
470
469
466
467
471
472
473
475
473
471
468
465
464
466
469
470
472
472
470
468
467
465
463
464
467
470
471
471
470
469
468
464
462
462
464
466
468
468
466
465
464
461
459
462
465
466
468
471
471
469
464
461
461
465
467
469
468
467
466
464
462
461
461
463
465
469
469
468
467
464
460
458
460
462
465
466
468
467
464
462
461
460
457
457
461
464
465
464
462
461
461
458
458
461
465
468
468
469
468
465
459
455
455
460
467
471
472
472
470
469
470
470
472
474
476
477
476
474
474
474
475
478
479
481
484
486
487
484
479
475
474
474
474
473
475
475
476
473
469
464
462
461
462
465
469
470
469
466
459
453
452
452
454
457
460
462
463
461
460
457
454
453
454
456
461
463
461
460
457
455
453
453
454
456
459
461
462
461
458
455
453
454
458
460
460
462
463
463
464
471
489
519
553
593
631
666
691
708
696
652
600
549
512
500
500
495
485
468
445
425
408
398
394
395
397
400
402
406
406
408
413
419
430
440
448
455
458
459
461
462
464
466
468
469
471
475
477
475
473
471
471
470
470
471
473
478
478
476
474
474
474
475
476
477
480
483
484
483
479
473
473
476
478
480
483
485
485
483
482
479
480
482
484
486
488
488
488
487
483
481
482
483
488
494
497
497
495
495
493
492
491
491
494
500
503
505
507
505
503
504
505
506
507
511
516
516
516
517
518
519
520
522
526
529
534
537
536
535
535
533
533
535
539
544
550
553
551
548
546
544
542
545
549
553
554
553
552
548
543
539
535
531
528
529
529
526
521
517
513
507
503
501
499
499
498
494
487
483
479
475
472
472
474
474
474
474
471
466
464
462
461
462
462
465
466
465
465
464
462
459
458
459
462
465
467
468
465
462
460
456
456
457
459
463
463
463
463
461
459
457
458
460
463
467
468
467
464
461
456
453
456
459
461
464
466
464
463
464
464
462
462
461
463
465
468
468
465
463
462
461
461
462
462
467
471
469
465
463
462
460
459
461
464
467
467
467
464
461
458
456
457
460
465
467
467
467
464
461
457
457
459
461
465
469
471
468
465
463
460
457
460
463
465
466
466
465
464
460
457
456
459
462
465
467
468
467
467
464
461
459
461
464
467
468
467
467
466
463
461
460
461
464
466
467
467
466
465
462
460
461
462
464
467
469
470
465
460
459
457
458
462
465
468
469
469
467
466
464
462
462
464
465
468
470
469
466
463
463
462
463
468
472
475
479
480
483
482
478
474
473
474
478
484
488
490
492
490
485
483
484
485
487
487
487
488
487
485
481
478
478
478
479
480
480
479
477
472
470
469
468
468
468
470
471
470
467
466
463
461
460
464
467
469
470
471
471
468
465
463
464
466
468
470
471
472
471
468
466
465
464
467
471
473
474
473
473
472
471
469
469
472
473
477
492
514
545
579
611
646
684
713
733
710
661
606
552
515
503
498
492
483
465
447
432
417
405
397
397
399
404
410
417
423
430
437
444
449
455
461
467
473
478
481
483
482
482
481
480
481
483
487
489
488
489
489
490
489
488
488
489
492
495
497
498
497
496
493
490
488
492
494
498
500
498
497
495
492
491
492
494
497
500
503
503
501
499
498
497
497
499
503
507
509
509
506
503
501
502
503
505
509
516
522
522
520
517
515
513
516
519
525
528
530
531
529
527
527
528
531
534
539
543
544
543
544
544
544
545
548
552
556
560
563
563
563
561
560
560
562
565
569
574
576
574
571
570
568
567
568
569
570
570
570
567
562
555
549
546
544
543
541
539
538
533
527
523
518
514
511
510
511
510
508
505
502
496
493
490
491
492
494
495
494
491
487
484
484
485
485
485
485
485
486
486
484
483
482
482
484
487
490
491
492
490
488
486
484
484
485
488
491
491
492
491
488
485
484
484
485
488
490
492
492
491
487
483
481
480
484
491
493
493
494
491
487
485
483
482
481
484
487
489
489
488
486
485
484
486
488
489
491
493
493
489
484
481
482
483
485
488
490
492
491
489
485
481
481
482
484
487
489
489
488
487
485
484
483
484
485
487
487
484
484
483
483
481
480
481
483
484
485
487
488
485
482
480
481
484
485
488
490
491
489
485
482
481
480
482
484
487
491
490
489
487
486
484
482
482
482
486
488
487
486
484
482
479
479
481
485
486
487
488
487
485
482
481
482
483
484
484
488
489
487
485
482
482
483
486
487
490
491
490
488
487
484
483
483
483
484
487
489
489
488
486
486
484
485
487
492
495
497
498
498
498
498
500
501
501
502
501
501
502
501
500
501
502
504
507
511
514
514
510
507
507
505
504
505
504
503
503
503
501
498
494
492
490
489
490
492
493
492
491
489
488
487
484
484
486
487
488
487
487
486
481
480
480
480
481
484
487
487
489
491
488
485
484
485
487
489
491
493
491
488
487
486
486
488
490
495
497
498
504
522
546
577
612
647
686
722
749
750
706
651
591
544
521
515
511
505
491
469
448
433
421
414
411
416
423
429
434
439
444
450
456
464
471
480
487
492
495
497
496
495
496
496
496
498
502
505
507
507
505
502
500
499
499
499
504
509
509
508
507
503
500
503
506
509
512
513
515
514
513
509
507
507
508
511
513
516
519
520
518
516
513
511
510
512
515
519
521
522
522
521
520
518
517
518
522
525
529
530
527
526
524
524
525
528
533
536
537
538
539
538
538
537
538
544
548
550
554
555
553
554
555
556
559
563
567
571
574
575
573
572
570
569
571
575
579
583
585
586
586
583
580
579
579
580
582
583
583
579
575
570
567
564
562
562
562
560
557
551
544
535
529
526
525
528
529
527
525
523
520
514
507
501
502
503
504
505
506
503
498
494
493
493
493
493
494
495
495
495
495
492
489
488
490
492
495
497
497
495
493
492
491
488
488
490
493
495
496
496
495
493
492
491
492
497
500
502
504
501
496
492
491
490
491
493
496
498
498
496
492
489
488
486
489
494
497
497
496
494
491
487
485
486
488
490
492
493
494
491
489
485
484
487
489
491
493
494
493
492
491
489
487
487
489
491
494
493
491
488
485
485
483
483
486
489
491
492
490
489
487
483
481
481
483
485
487
488
488
486
483
481
480
480
480
485
488
490
489
488
486
483
482
483
484
487
490
489
488
487
483
480
479
480
482
485
486
487
486
484
481
479
479
479
482
485
488
490
487
484
481
479
478
478
480
483
486
488
485
482
480
478
477
479
483
486
487
486
488
488
485
484
485
490
493
497
502
503
500
493
488
487
489
493
499
506
509
509
507
506
501
496
494
494
497
501
502
503
499
493
489
487
486
484
488
491
492
490
487
486
484
479
477
479
483
486
488
487
483
481
479
476
474
474
479
483
485
485
482
479
477
476
475
477
479
481
482
482
481
479
477
475
475
477
481
486
488
489
486
484
481
479
486
504
533
568
602
636
669
700
723
726
691
644
594
552
530
525
520
509
495
474
455
440
431
427
425
422
421
421
422
425
429
436
448
459
467
474
477
478
481
483
486
489
493
497
497
498
498
496
493
494
497
499
502
503
503
504
504
503
502
500
500
503
508
511
512
510
508
504
501
502
505
508
512
514
515
515
514
511
508
509
512
515
516
518
520
519
518
516
515
516
517
519
521
522
525
525
523
523
523
524
525
529
532
533
535
535
534
532
532
534
537
541
546
550
551
550
548
547
548
550
553
558
562
564
565
565
565
565
565
567
570
573
578
583
583
582
580
578
578
580
582
583
586
589
590
586
582
578
576
575
574
576
576
573
570
566
560
553
548
547
546
546
544
542
538
532
528
523
519
518
518
519
518
518
516
511
508
507
505
505
506
507
508
508
508
506
501
497
495
498
502
505
507
507
507
504
501
500
500
500
502
504
506
508
507
506
502
499
499
501
504
508
509
510
508
506
504
500
499
501
503
507
509
509
508
504
502
501
501
501
502
505
506
506
507
504
501
500
501
503
504
506
507
509
508
505
502
499
497
500
504
506
507
508
506
503
498
497
498
499
500
504
507
507
505
503
499
497
497
498
500
504
505
504
502
498
498
497
495
496
500
504
505
506
504
502
500
500
500
500
502
504
504
503
501
497
495
495
496
497
499
503
506
504
502
500
498
497
496
498
502
504
506
504
503
500
497
496
497
498
498
499
501
502
503
501
498
497
499
502
505
509
509
506
504
500
497
496
496
499
504
507
507
506
503
499
499
499
499
500
503
505
504
504
503
500
500
501
502
504
508
512
515
517
517
517
514
512
512
512
515
521
526
528
528
525
524
524
521
520
522
523
523
523
522
519
518
515
513
515
517
517
515
513
509
506
503
501
501
503
506
507
508
506
502
500
498
497
500
501
503
506
505
504
503
500
498
497
500
503
505
506
508
508
504
502
499
500
502
507
510
512
511
509
508
508
506
505
506
508
512
527
549
577
609
643
677
715
746
768
754
705
649
591
552
536
529
526
518
499
478
461
446
438
433
432
435
440
448
455
460
467
474
481
487
493
496
500
506
511
516
519
520
519
519
519
517
518
521
524
527
529
528
526
525
522
521
520
520
524
529
530
531
530
528
524
523
525
529
534
538
539
537
535
532
529
527
528
530
535
538
541
539
537
535
533
533
536
539
542
543
544
545
543
540
538
538
540
543
548
552
554
554
552
550
547
549
551
554
560
564
567
568
567
565
563
564
568
572
577
580
581
581
581
581
582
582
584
589
594
597
600
600
599
597
596
597
599
603
606
609
609
605
602
601
600
601
604
605
606
605
605
600
593
588
581
578
579
579
576
573
568
562
557
553
549
546
545
545
545
545
543
538
531
525
522
520
522
525
527
527
525
523
518
517
514
514
516
519
522
524
521
517
515
512
512
514
516
519
523
523
521
518
514
513
512
513
515
518
521
522
522
521
517
514
513
514
517
519
521
522
522
520
517
515
514
515
515
517
518
519
518
516
512
511
511
513
517
520
521
522
519
516
514
513
512
514
515
516
518
516
516
514
510
507
508
510
512
514
516
517
516
514
510
508
507
508
509
511
514
514
511
508
506
504
504
504
506
510
513
513
511
508
506
508
508
508
512
515
514
515
513
509
507
507
506
507
511
514
515
514
511
508
505
503
502
503
505
510
512
512
509
508
506
503
502
502
503
507
509
512
512
507
503
500
502
505
506
508
511
512
509
506
505
505
506
507
509
511
513
512
509
507
505
504
503
506
509
510
511
511
510
508
508
506
506
509
512
516
520
523
523
518
513
510
510
514
518
522
528
530
528
527
525
524
523
522
523
526
528
528
527
522
517
513
512
513
514
516
516
514
512
510
508
504
502
503
506
509
508
507
505
502
500
499
501
503
506
508
507
507
506
502
498
497
499
502
504
507
511
510
506
502
499
499
501
505
508
509
510
511
511
509
507
505
504
508
526
550
579
612
645
679
711
736
751
733
691
642
593
558
545
537
529
519
503
485
471
459
449
443
438
436
436
439
447
454
462
472
480
487
492
495
498
501
506
511
516
519
519
518
515
513
512
513
518
520
520
522
522
520
519
518
517
517
520
521
525
527
527
524
521
520
519
518
522
526
529
531
531
529
526
526
526
526
528
532
535
535
533
532
532
530
527
530
532
536
539
541
541
541
539
534
532
534
537
541
546
548
548
545
544
542
543
545
548
553
557
558
557
557
557
558
558
560
566
571
575
577
578
576
575
575
576
579
583
588
592
594
594
591
588
587
588
590
594
598
599
600
601
598
595
590
586
585
588
590
588
587
583
577
573
567
563
563
561
560
559
554
550
547
544
539
535
533
533
533
532
529
527
523
521
519
517
517
518
519
520
520
518
515
512
510
509
511
513
515
517
516
515
510
509
507
507
509
513
517
518
516
515
513
512
509
507
508
513
517
520
520
521
520
516
513
512
513
518
522
522
520
518
516
513
512
512
513
516
518
520
520
519
516
513
512
512
513
517
519
519
519
517
513
510
509
509
512
516
519
520
517
512
509
508
507
508
510
514
517
519
518
516
513
511
510
510
511
515
518
518
517
515
512
509
508
508
512
514
516
518
518
515
513
510
509
508
509
513
514
514
514
512
511
509
506
507
509
511
514
516
516
512
510
510
511
510
512
513
516
517
515
512
509
508
508
508
509
513
515
516
516
515
511
509
509
511
513
517
518
516
513
510
507
506
505
508
513
518
521
520
517
514
509
504
506
509
513
516
519
521
520
518
517
517
517
521
526
532
535
534
529
525
521
521
523
528
536
541
542
541
537
534
531
527
526
529
532
535
535
534
530
524
520
518
517
519
523
526
526
524
521
515
510
508
510
513
515
519
520
520
517
514
510
507
508
508
511
515
518
517
515
513
510
509
508
512
518
517
518
517
515
512
510
509
508
511
515
519
522
522
519
516
513
514
525
549
582
618
654
687
721
748
768
758
714
664
614
576
561
554
546
531
510
486
469
459
453
451
450
453
454
456
458
459
465
475
484
495
504
512
515
514
515
517
521
525
528
532
534
534
533
530
528
528
528
530
533
535
536
536
534
532
530
531
533
537
540
543
543
541
538
535
533
534
538
538
541
543
543
545
543
540
538
540
543
546
550
553
553
552
548
542
540
543
546
548
552
557
558
557
555
554
553
553
554
558
562
564
564
565
564
562
562
565
568
572
576
578
578
578
578
577
578
581
586
592
596
597
598
598
596
593
594
597
600
606
611
613
613
612
610
608
605
607
609
612
616
619
618
615
613
609
604
601
602
603
603
601
597
591
586
582
578
575
574
573
571
568
565
560
553
549
547
546
545
546
547
546
542
537
532
528
527
529
530
531
533
532
529
526
522
522
525
525
526
531
535
535
533
529
526
523
524
525
526
530
533
533
532
529
525
523
524
526
528
531
533
534
532
529
527
526
526
527
530
533
534
533
531
528
525
522
523
526
530
534
535
534
531
527
525
524
524
526
529
533
533
533
532
529
526
526
525
527
528
531
532
530
527
525
522
519
521
523
524
526
528
528
525
523
522
519
519
521
523
525
528
528
523
520
519
518
519
520
523
527
528
526
523
520
519
519
520
523
526
528
529
529
526
521
518
518
517
519
522
524
525
525
523
519
517
516
518
520
525
527
527
525
520
516
515
514
514
517
520
523
524
522
519
518
518
515
515
517
521
524
525
523
521
518
515
515
517
521
526
526
525
523
520
517
514
513
514
517
521
523
525
524
519
516
514
514
515
519
524
527
528
527
526
526
526
527
528
531
530
530
532
533
533
532
534
535
536
540
543
543
540
537
534
533
533
530
530
534
535
536
535
531
525
519
516
517
519
520
522
523
521
518
515
512
512
512
513
515
518
517
518
517
514
513
512
513
514
517
519
520
521
517
515
513
510
509
511
514
517
519
517
517
514
512
511
513
517
521
523
524
524
521
523
539
564
594
626
663
703
736
760
763
725
675
622
579
561
561
559
552
540
517
493
474
461
454
452
454
454
458
462
464
464
468
475
486
495
504
513
519
521
522
521
521
521
523
526
529
532
532
530
528
524
525
528
530
534
538
542
542
539
537
534
531
531
533
535
539
541
542
542
540
535
532
533
535
539
542
544
544
544
541
538
538
538
540
544
547
548
545
547
547
543
542
542
542
545
550
553
555
554
551
549
550
552
554
557
563
566
567
567
567
565
563
563
563
567
571
576
578
577
577
576
574
577
580
587
593
594
594
595
595
593
591
594
599
600
603
605
606
605
603
599
598
600
604
606
607
609
608
604
600
595
592
590
589
588
587
586
581
575
568
562
558
555
554
555
554
553
551
545
538
534
532
532
532
534
534
534
531
527
524
521
519
517
518
521
523
523
521
519
518
516
513
513
518
522
526
528
525
521
516
512
513
518
521
524
526
529
527
524
519
517
516
517
520
523
526
527
525
523
520
518
518
520
523
526
528
527
526
524
521
519
519
520
521
523
525
524
523
519
517
517
519
521
525
528
531
530
529
524
519
519
518
519
522
523
525
526
523
521
518
516
514
515
519
522
523
525
523
520
518
516
516
518
521
522
524
524
522
518
515
513
514
517
520
521
525
527
527
525
520
515
513
516
521
524
525
526
525
521
519
516
513
516
521
525
528
528
524
520
518
517
518
519
522
525
527
526
525
521
518
518
518
519
521
524
526
527
526
523
520
515
514
517
520
523
527
526
524
522
521
519
521
524
527
530
533
533
531
528
527
527
530
536
541
543
541
538
535
535
534
535
540
544
547
548
550
548
542
534
532
535
538
543
545
547
546
542
537
533
527
524
527
529
532
533
534
531
528
524
520
518
519
522
524
526
526
525
523
521
519
519
521
523
524
525
526
524
521
517
514
515
517
520
524
527
528
528
526
523
521
518
520
525
530
533
533
532
529
526
527
540
566
599
637
674
710
744
768
780
754
708
656
607
576
567
562
554
539
515
490
472
460
455
455
458
464
466
467
469
468
472
483
497
509
516
522
525
527
528
529
532
535
537
542
545
543
540
539
538
538
540
543
546
549
550
549
547
543
541
541
541
542
545
550
553
553
551
549
547
544
543
545
548
551
553
554
553
551
549
549
552
553
556
560
562
562
560
556
553
553
555
558
560
562
564
562
564
565
564
562
563
567
571
574
575
576
574
573
571
572
576
579
584
590
592
592
592
591
590
592
597
601
606
610
611
611
612
611
611
611
613
617
621
624
625
626
625
622
621
621
623
626
629
632
631
628
623
618
614
610
608
609
609
608
605
600
595
591
586
581
581
582
581
576
572
570
567
561
559
555
554
555
557
556
554
550
546
543
540
538
540
541
543
545
545
543
540
536
534
533
536
539
543
543
542
541
539
535
533
535
537
540
543
546
546
543
539
536
536
537
539
542
547
547
546
544
540
538
536
536
539
542
545
546
545
543
541
538
536
537
541
543
546
548
548
545
541
537
535
533
534
538
542
544
543
541
538
536
536
537
540
542
544
544
543
539
537
536
534
536
536
539
541
542
541
539
537
535
534
535
535
537
540
541
540
537
535
533
531
532
536
540
542
543
542
538
534
532
532
532
535
540
543
544
541
537
534
534
533
534
538
541
542
542
541
540
537
534
533
533
534
538
542
542
539
536
535
534
531
531
534
539
539
540
539
536
532
531
532
533
536
539
541
540
537
534
531
530
530
532
534
537
541
542
541
538
536
536
537
538
539
541
542
542
540
536
532
530
531
534
538
544
546
546
545
542
542
543
544
548
550
551
551
551
551
550
550
551
553
555
559
562
563
561
555
553
551
548
547
546
548
550
553
552
549
545
540
539
539
539
541
542
542
539
536
532
530
529
529
532
536
538
539
537
534
533
530
529
529
532
534
537
539
536
531
527
525
526
527
530
533
535
537
535
533
532
530
530
534
538
540
541
543
542
537
539
555
581
616
653
691
727
761
783
784
743
694
640
595
574
572
570
562
547
521
497
480
467
462
461
465
470
474
478
481
481
486
494
502
512
521
531
537
537
536
534
534
537
541
545
550
552
551
549
545
542
541
543
546
548
552
553
553
551
548
545
546
546
547
551
555
558
557
556
553
550
548
547
548
552
555
556
556
557
554
553
554
554
557
560
561
563
565
564
560
558
558
558
560
563
566
569
571
572
570
566
564
566
568
573
576
578
579
579
578
577
577
578
582
588
592
594
593
592
591
589
591
594
597
602
607
610
611
610
610
610
612
614
616
620
623
625
626
625
622
620
621
624
625
627
630
630
626
619
613
610
607
605
604
604
604
601
596
590
584
579
575
574
572
571
571
568
563
558
553
548
546
546
546
547
547
545
544
543
542
538
535
537
539
541
541
538
536
535
534
532
531
531
532
535
538
538
537
535
531
529
530
531
535
537
538
539
536
534
533
532
530
530
535
538
540
541
538
534
532
532
532
534
534
536
538
539
539
536
533
529
527
531
536
539
540
539
538
536
532
530
531
533
535
537
539
538
536
533
531
530
528
529
532
535
538
537
535
531
527
525
526
527
530
533
536
535
530
527
525
524
526
529
530
532
533
531
532
532
528
526
525
526
530
531
532
532
530
528
524
523
524
526
530
532
533
532
529
525
524
522
522
524
528
530
530
531
528
524
522
520
522
525
527
530
531
529
527
525
522
518
521
525
529
532
531
528
527
524
522
521
521
525
528
531
531
530
526
522
520
519
520
522
527
531
533
532
529
527
526
527
530
536
543
545
544
541
536
532
531
532
538
545
549
550
549
550
547
544
540
537
538
543
546
546
546
545
540
535
531
527
529
532
532
533
535
533
529
523
520
519
522
525
527
529
529
528
526
522
519
520
522
524
525
527
528
525
524
522
521
521
524
527
529
532
532
529
526
525
523
523
524
529
533
535
536
534
531
528
527
536
558
586
620
655
689
723
751
771
770
732
686
635
595
577
572
565
553
536
513
494
482
475
472
470
469
469
469
471
474
476
486
498
511
520
522
523
525
529
533
537
541
544
546
546
547
544
542
542
543
544
548
551
553
554
553
552
548
547
547
548
552
554
558
559
558
554
549
547
547
550
553
558
564
565
563
560
556
553
553
555
558
562
565
567
567
566
564
562
561
563
566
569
572
573
572
571
569
568
569
571
576
580
582
584
584
580
577
578
581
583
586
592
596
598
596
595
595
595
596
598
604
609
611
612
613
613
613
614
615
618
623
