1232
1231
1229
1226
1223
1223
1225
1228
1230
1232
1232
1231
1228
1225
1224
1225
1228
1232
1235
1238
1238
1235
1234
1232
1231
1233
1236
1240
1243
1244
1245
1244
1243
1244
1245
1246
1249
1254
1258
1263
1265
1265
1265
1263
1263
1267
1272
1276
1280
1284
1287
1288
1286
1284
1283
1285
1289
1294
1295
1297
1298
1297
1296
1295
1292
1290
1291
1292
1292
1289
1286
1279
1272
1266
1262
1260
1256
1256
1255
1252
1248
1243
1236
1231
1227
1224
1223
1224
1224
1222
1219
1214
1210
1207
1203
1202
1203
1203
1201
1202
1202
1200
1198
1195
1193
1194
1197
1198
1199
1199
1198
1195
1192
1190
1188
1189
1192
1194
1196
1198
1197
1194
1192
1188
1187
1189
1191
1194
1196
1197
1195
1193
1189
1188
1188
1189
1191
1195
1197
1198
1195
1193
1192
1190
1188
1190
1192
1194
1196
1196
1196
1195
1192
1189
1189
1187
1191
1194
1195
1195
1194
1190
1188
1187
1186
1188
1190
1193
1195
1195
1195
1191
1188
1186
1185
1186
1189
1192
1195
1195
1194
1191
1187
1186
1185
1187
1189
1190
1192
1192
1191
1190
1188
1186
1186
1185
1186
1189
1192
1192
1193
1193
1189
1185
1183
1183
1184
1188
1193
1191
1190
1190
1187
1184
1183
1183
1186
1191
1194
1193
1191
1189
1186
1184
1183
1184
1186
1187
1189
1189
1189
1188
1186
1183
1181
1181
1183
1187
1190
1192
1191
1188
1185
1182
1182
1185
1188
1191
1192
1191
1191
1188
1184
1183
1183
1184
1187
1189
1191
1190
1188
1187
1187
1188
1189
1192
1199
1202
1203
1203
1202
1200
1197
1195
1195
1195
1198
1200
1204
1209
1211
1211
1209
1208
1210
1209
1209
1209
1210
1211
1210
1206
1200
1198
1197
1197
1198
1199
1199
1198
1194
1190
1188
1187
1185
1184
1187
1189
1189
1191
1189
1187
1183
1181
1182
1184
1184
1188
1190
1189
1188
1186
1183
1180
1180
1183
1187
1188
1189
1190
1188
1185
1183
1182
1182
1184
1186
1188
1189
1189
1188
1187
1187
1185
1185
1186
1190
1202
1222
1249
1279
1309
1340
1368
1391
1409
1412
1382
1338
1295
1259
1244
1242
1237
1228
1214
1197
1181
1165
1151
1143
1134
1125
1123
1127
1134
1142
1147
1152
1158
1165
1171
1176
1179
1184
1188
1194
1198
1201
1202
1199
1196
1194
1193
1195
1198
1202
1204
1206
1205
1202
1201
1199
1198
1200
1202
1206
1206
1208
1208
1206
1205
1204
1204
1206
1208
1211
1214
1215
1214
1211
1208
1205
1206
1208
1210
1213
1215
1218
1217
1216
1214
1212
1213
1215
1217
1221
1223
1225
1225
1223
1222
1220
1220
1222
1226
1229
1231
1234
1235
1233
1233
1232
1232
1235
1239
1245
1249
1252
1251
1251
1251
1252
1251
1255
1260
1265
1268
1271
1273
1272
1270
1270
1273
1275
1279
1284
1287
1288
1288
1287
1286
1285
1283
1284
1286
1290
1291
1289
1285
1281
1276
1270
1266
1263
1263
1263
1261
1257
1250
1243
1235
1231
1228
1227
1227
1227
1227
1223
1219
1213
1208
1205
1202
1202
1203
1205
1206
1205
1201
1196
1193
1192
1191
1192
1196
1198
1197
1196
1196
1194
1192
1189
1189
1190
1193
1196
1198
1196
1193
1191
1189
1188
1188
1190
1192
1194
1196
1196
1194
1192
1190
1188
1187
1189
1192
1194
1195
1195
1192
1191
1190
1188
1189
1191
1194
1196
1196
1196
1194
1191
1189
1187
1188
1190
1195
1197
1197
1194
1193
1190
1189
1188
1188
1190
1193
1195
1197
1196
1194
1191
1188
1186
1187
1189
1193
1194
1195
1194
1192
1190
1188
1186
1186
1188
1191
1192
1193
1193
1192
1190
1187
1185
1186
1189
1191
1194
1195
1194
1194
1190
1187
1185
1187
1189
1193
1195
1195
1195
1191
1188
1187
1187
1186
1189
1191
1192
1193
1193
1192
1189
1187
1185
1187
1189
1192
1195
1195
1194
1192
1189
1187
1186
1188
1190
1191
1194
1195
1195
1192
1190
1188
1186
1188
1190
1193
1194
1196
1195
1193
1189
1187
1187
1188
1191
1193
1195
1196
1197
1195
1191
1191
1191
1195
1200
1206
1208
1209
1208
1206
1203
1202
1201
1199
1201
1206
1210
1212
1214
1215
1213
1212
1213
1213
1213
1214
1214
1214
1213
1210
1206
1204
1202
1201
1202
1202
1203
1202
1200
1197
1194
1192
1190
1189
1190
1192
1193
1193
1192
1190
1187
1186
1186
1187
1189
1192
1193
1194
1192
1189
1186
1184
1184
1185
1188
1191
1192
1192
1190
1188
1186
1185
1185
1186
1189
1192
1194
1195
1194
1193
1190
1187
1188
1188
1190
1200
1219
1246
1275
1306
1338
1371
1400
1423
1434
1410
1366
1316
1269
1242
1234
1228
1220
1210
1193
1175
1159
1147
1136
1129
1123
1123
1126
1133
1140
1145
1152
1161
1169
1172
1176
1181
1187
1192
1198
1202
1204
1205
1204
1201
1200
1199
1201
1203
1205
1209
1211
1211
1210
1208
1206
1206
1205
1207
1211
1213
1214
1213
1212
1210
1209
1208
1210
1213
1216
1219
1221
1220
1218
1215
1214
1213
1216
1219
1222
1225
1226
1226
1224
1222
1220
1220
1222
1224
1228
1231
1233
1233
1232
1230
1229
1230
1232
1235
1240
1243
1244
1245
1244
1243
1242
1243
1246
1250
1255
1259
1262
1262
1260
1259
1259
1261
1264
1269
1274
1278
1280
1281
1280
1279
1279
1281
1283
1287
1291
1294
1296
1296
1295
1292
1291
1291
1292
1294
1297
1298
1296
1293
1287
1283
1279
1275
1273
1272
1272
1270
1266
1260
1254
1247
1242
1238
1237
1236
1236
1236
1233
1229
1224
1219
1215
1213
1212
1214
1215
1215
1214
1211
1207
1204
1202
1201
1202
1204
1207
1208
1208
1206
1203
1200
1199
1199
1200
1202
1205
1206
1206
1205
1203
1200
1198
1198
1200
1203
1205
1207
1207
1206
1204
1202
1200
1201
1202
1205
1207
1208
1209
1207
1204
1202
1200
1200
1201
1204
1207
1209
1208
1206
1204
1201
1200
1200
1201
1204
1207
1208
1207
1205
1203
1201
1200
1200
1201
1204
1206
1207
1207
1205
1202
1199
1198
1199
1202
1205
1206
1206
1205
1203
1200
1198
1196
1197
1199
1201
1204
1204
1204
1202
1199
1197
1196
1196
1199
1202
1204
1204
1203
1201
1199
1196
1194
1196
1198
1200
1202
1203
1202
1200
1198
1196
1195
1196
1197
1200
1202
1203
1202
1200
1198
1196
1195
1196
1198
1201
1203
1205
1204
1201
1199
1198
1196
1197
1199
1201
1204
1205
1203
1201
1198
1196
1194
1196
1198
1200
1203
1204
1203
1201
1198
1196
1195
1196
1198
1201
1203
1204
1203
1201
1198
1196
1195
1196
1198
1201
1203
1204
1203
1200
1198
1197
1197
1197
1200
1203
1204
1205
1203
1200
1198
1196
1195
1196
1199
1202
1204
1204
1203
1201
1200
1199
1199
1203
1207
1213
1218
1220
1218
1215
1212
1211
1212
1213
1213
1214
1216
1218
1217
1219
1220
1220
1221
1224
1226
1227
1227
1225
1223
1221
1217
1214
1213
1213
1213
1213
1214
1212
1210
1207
1204
1201
1200
1201
1202
1203
1203
1203
1200
1197
1195
1193
1193
1195
1198
1201
1203
1202
1200
1198
1196
1194
1194
1195
1197
1200
1202
1201
1200
1197
1195
1194
1194
1195
1198
1200
1202
1204
1203
1202
1201
1199
1199
1200
1202
1203
1206
1219
1240
1267
1298
1333
1371
1410
1442
1465
1456
1411
1359
1302
1260
1244
1239
1233
1224
1207
1185
1166
1150
1139
1129
1128
1131
1135
1142
1149
1155
1163
1170
1177
1183
1188
1194
1200
1206
1211
1215
1216
1215
1213
1212
1211
1211
1214
1218
1219
1220
1221
1221
1219
1217
1216
1217
1220
1223
1224
1226
1224
1223
1222
1220
1218
1219
1221
1225
1228
1231
1230
1227
1225
1223
1222
1224
1227
1231
1233
1234
1234
1234
1232
1232
1231
1231
1234
1238
1240
1240
1240
1239
1239
1238
1238
1239
1242
1246
1251
1252
1251
1250
1249
1248
1247
1251
1256
1260
1263
1265
1267
1266
1263
1264
1264
1267
1273
1278
1283
1285
1286
1286
1285
1285
1286
1290
1294
1299
1301
1304
1305
1306
1305
1304
1304
1305
1308
1311
1313
1313
1309
1305
1301
1297
1293
1291
1289
1290
1288
1285
1280
1274
1268
1262
1258
1255
1254
1253
1250
1247
1243
1239
1233
1230
1227
1227
1227
1227
1226
1224
1222
1218
1214
1212
1209
1210
1212
1214
1215
1217
1215
1211
1208
1206
1205
1205
1208
1211
1214
1214
1212
1210
1208
1206
1205
1208
1210
1211
1212
1213
1212
1209
1206
1204
1205
1207
1209
1212
1213
1213
1212
1209
1207
1205
1205
1206
1209
1213
1215
1214
1213
1210
1206
1204
1203
1205
1207
1211
1213
1212
1211
1208
1205
1204
1204
1205
1207
1209
1210
1210
1208
1206
1205
1204
1204
1205
1207
1210
1210
1209
1206
1204
1203
1202
1203
1203
1204
1207
1209
1210
1209
1206
1204
1201
1201
1203
1207
1210
1211
1208
1207
1205
1202
1201
1202
1204
1207
1209
1209
1209
1208
1203
1201
1201
1201
1203
1206
1208
1207
1208
1208
1206
1204
1201
1201
1203
1206
1208
1208
1207
1205
1203
1201
1200
1200
1202
1204
1206
1208
1208
1206
1204
1201
1200
1202
1203
1203
1206
1207
1207
1204
1202
1201
1202
1202
1203
1207
1210
1210
1208
1205
1203
1202
1201
1201
1205
1208
1209
1209
1209
1206
1204
1203
1201
1201
1204
1207
1209
1210
1209
1208
1205
1203
1203
1204
1208
1211
1216
1220
1221
1220
1219
1217
1216
1217
1220
1223
1222
1220
1220
1218
1218
1219
1224
1226
1230
1236
1236
1234
1230
1227
1223
1223
1221
1220
1223
1223
1223
1221
1218
1214
1211
1209
1208
1209
1211
1213
1213
1211
1210
1206
1202
1200
1202
1204
1206
1210
1209
1209
1206
1203
1203
1202
1201
1202
1204
1208
1209
1208
1207
1204
1202
1201
1204
1206
1209
1211
1211
1209
1208
1206
1204
1204
1205
1209
1212
1213
1213
1213
1215
1225
1244
1272
1303
1338
1374
1407
1432
1448
1438
1396
1346
1300
1271
1265
1267
1262
1252
1236
1215
1196
1177
1163
1158
1154
1152
1155
1159
1163
1166
1167
1172
1179
1188
1197
1204
1211
1216
1218
1219
1220
1219
1218
1220
1223
1224
1228
1229
1230
1227
1225
1225
1224
1225
1228
1231
1233
1235
1234
1232
1230
1229
1229
1230
1232
1234
1237
1238
1238
1237
1235
1234
1233
1235
1238
1241
1244
1245
1245
1243
1241
1240
1240
1242
1245
1249
1252
1253
1252
1250
1249
1248
1249
1251
1254
1258
1261
1262
1263
1262
1261
1260
1261
1262
1266
1270
1273
1274
1275
1276
1276
1275
1276
1279
1284
1288
1292
1294
1296
1296
1296
1297
1298
1300
1304
1309
1312
1314
1315
1314
1313
1313
1313
1316
1318
1321
1323
1324
1323
1320
1317
1313
1311
1311
1311
1310
1308
1305
1300
1294
1288
1283
1279
1276
1275
1274
1272
1268
1264
1259
1254
1250
1246
1245
1245
1245
1245
1244
1241
1237
1234
1231
1229
1229
1231
1234
1234
1234
1232
1230
1227
1225
1225
1225
1227
1229
1231
1230
1228
1226
1225
1223
1223
1224
1225
1228
1230
1230
1228
1226
1224
1221
1222
1223
1226
1228
1230
1230
1228
1226
1224
1222
1222
1224
1226
1229
1231
1231
1229
1227
1224
1223
1223
1225
1227
1229
1231
1231
1230
1227
1225
1223
1223
1225
1227
1230
1232
1232
1230
1227
1225
1223
1223
1225
1227
1229
1230
1229
1228
1226
1223
1222
1222
1224
1226
1228
1229
1228
1227
1224
1222
1220
1221
1222
1225
1228
1229
1228
1225
1223
1221
1220
1220
1222
1224
1226
1228
1226
1225
1223
1222
1221
1220
1221
1223
1225
1227
1225
1224
1221
1218
1219
1220
1222
1224
1226
1227
1227
1224
1221
1219
1219
1220
1222
1224
1227
1229
1228
1226
1224
1222
1221
1221
1222
1225
1227
1229
1228
1226
1224
1222
1221
1222
1224
1226
1229
1230
1229
1227
1225
1222
1221
1222
1224
1227
1229
1230
1230
1227
1225
1223
1221
1222
1225
1228
1230
1231
1230
1227
1225
1223
1223
1223
1225
1228
1230
1232
1232
1231
1230
1229
1231
1235
1239
1245
1247
1247
1243
1238
1235
1235
1237
1242
1247
1252
1254
1256
1255
1252
1247
1242
1241
1243
1246
1248
1247
1246
1242
1240
1236
1232
1230
1232
1234
1236
1237
1236
1233
1229
1225
1224
1224
1225
1226
1229
1230
1230
1229
1227
1224
1222
1222
1223
1226
1228
1230
1230
1229
1228
1225
1223
1222
1223
1227
1229
1231
1232
1230
1228
1225
1224
1224
1226
1229
1233
1235
1235
1233
1230
1227
1228
1242
1266
1298
1335
1372
1408
1443
1469
1487
1473
1429
1379
1327
1291
1279
1272
1262
1248
1225
1201
1184
1173
1167
1164
1165
1167
1168
1171
1172
1176
1184
1195
1208
1218
1226
1231
1234
1234
1235
1236
1238
1241
1244
1247
1249
1249
1247
1246
1244
1243
1244
1246
1249
1252
1253
1252
1251
1249
1248
1248
1249
1251
1254
1256
1258
1258
1257
1255
1253
1251
1252
1255
1259
1262
1263
1261
1260
1259
1257
1257
1258
1260
1263
1267
1269
1268
1266
1265
1264
1264
1266
1268
1272
1275
1276
1276
1276
1274
1274
1274
1276
1280
1284
1287
1289
1290
1289
1289
1288
1290
1292
1296
1301
1305
1307
1309
1308
1308
1309
1310
1313
1318
1323
1326
1328
1329
1329
1329
1329
1330
1333
1337
1341
1343
1343
1343
1342
1340
1337
1336
1337
1338
1339
1338
1336
1331
1326
1320
1315
1311
1308
1307
1306
1303
1300
1295
1290
1284
1279
1275
1274
1274
1273
1273
1272
1268
1263
1259
1255
1253
1254
1256
1257
1257
1257
1254
1251
1249
1247
1246
1248
1250
1252
1254
1253
1252
1250
1248
1246
1246
1248
1250
1252
1253
1253
1252
1250
1248
1247
1246
1248
1252
1254
1256
1256
1254
1253
1251
1250
1249
1251
1253
1255
1257
1255
1254
1253
1251
1249
1249
1251
1253
1255
1257
1257
1256
1253
1251
1249
1248
1250
1253
1256
1258
1258
1255
1252
1249
1247
1249
1251
1254
1256
1256
1255
1253
1251
1250
1248
1248
1249
1252
1254
1255
1253
1251
1248
1247
1246
1247
1249
1252
1254
1255
1254
1252
1249
1247
1247
1248
1249
1252
1253
1253
1253
1251
1248
1246
1244
1246
1249
1253
1255
1254
1253
1251
1248
1245
1245
1246
1248
1251
1254
1254
1254
1250
1247
1247
1246
1247
1249
1251
1252
1253
1252
1249
1247
1246
1245
1246
1248
1251
1252
1252
1252
1251
1248
1246
1245
1245
1248
1251
1253
1253
1251
1250
1249
1246
1245
1246
1248
1250
1252
1253
1252
1250
1247
1245
1244
1245
1247
1250
1253
1253
1251
1248
1245
1244
1246
1248
1249
1248
1249
1250
1248
1247
1246
1246
1247
1249
1252
1256
1259
1262
1263
1262
1260
1257
1254
1253
1256
1260
1266
1271
1273
1270
1267
1266
1266
1266
1266
1267
1269
1270
1270
1268
1265
1260
1257
1256
1256
1258
1257
1256
1254
1252
1249
1247
1244
1244
1245
1248
1250
1250
1247
1243
1240
1238
1240
1241
1241
1245
1246
1246
1246
1243
1240
1238
1240
1242
1244
1246
1247
1247
1246
1244
1243
1242
1241
1242
1245
1247
1248
1249
1250
1248
1246
1245
1243
1245
1247
1253
1267
1291
1319
1349
1382
1416
1448
1472
1489
1473
1430
1381
1333
1301
1292
1288
1280
1270
1254
1235
1221
1207
1196
1189
1182
1180
1182
1189
1196
1202
1207
1214
1220
1225
1229
1234
1240
1245
1251
1256
1257
1257
1256
1256
1255
1254
1254
1256
1260
1263
1264
1263
1261
1259
1257
1257
1258
1259
1262
1265
1266
1266
1263
1263
1261
1261
1262
1264
1266
1269
1272
1271
1269
1268
1266
1265
1266
1269
1271
1273
1276
1275
1274
1271
1270
1270
1270
1273
1277
1279
1281
1282
1280
1279
1279
1279
1281
1285
1288
1291
1294
1292
1290
1290
1289
1290
1293
1297
1302
1305
1307
1309
1308
1307
1306
1309
1312
1317
1322
1326
1328
1329
1329
1328
1328
1330
1333
1337
1342
1345
1347
1346
1345
1343
1343
1343
1345
1346
1349
1349
1349
1346
1343
1338
1334
1332
1328
1326
1324
1323
1321
1315
1309
1304
1298
1293
1289
1288
1287
1287
1284
1280
1275
1269
1265
1263
1263
1263
1263
1263
1262
1259
1255
1253
1250
1250
1250
1251
1254
1255
1255
1254
1250
1247
1245
1246
1247
1249
1253
1255
1254
1251
1248
1248
1246
1245
1248
1249
1251
1254
1254
1252
1250
1247
1246
1246
1248
1249
1252
1254
1254
1252
1252
1250
1246
1246
1248
1250
1254
1255
1255
1251
1251
1250
1248
1246
1248
1251
1255
1256
1254
1252
1251
1249
1248
1249
1250
1251
1254
1254
1253
1251
1247
1245
1245
1244
1245
1247
1250
1250
1251
1250
1249
1247
1246
1245
1245
1247
1250
1250
1250
1247
1246
1245
1243
1241
1242
1246
1248
1251
1251
1251
1250
1247
1244
1243
1244
1246
1247
1248
1248
1247
1245
1244
1244
1244
1246
1249
1249
1249
1249
1247
1245
1243
1243
1245
1246
1248
1249
1249
1249
1247
1245
1244
1243
1242
1244
1246
1249
1250
1250
1247
1245
1243
1241
1242
1244
1246
1249
1250
1250
1249
1246
1243
1241
1243
1246
1248
1249
1249
1248
1246
1244
1242
1241
1244
1247
1249
1251
1252
1252
1252
1250
1249
1252
1256
1259
1263
1264
1262
1259
1257
1255
1256
1258
1264
1269
1271
1272
1274
1272
1268
1264
1260
1260
1262
1264
1265
1265
1263
1260
1258
1255
1251
1250
1252
1254
1256
1255
1253
1250
1247
1245
1243
1242
1243
1246
1249
1251
1250
1249
1248
1246
1244
1243
1244
1247
1250
1251
1250
1247
1246
1244
1243
1243
1245
1248
1250
1250
1250
1248
1247
1246
1244
1245
1247
1251
1253
1255
1255
1253
1248
1247
1257
1280
1312
1346
1382
1418
1449
1469
1484
1474
1435
1388
1344
1312
1304
1305
1299
1289
1272
1247
1227
1213
1205
1201
1197
1194
1194
1195
1199
1201
1204
1210
1219
1229
1238
1246
1252
1254
1254
1254
1255
1257
1260
1264
1266
1267
1268
1267
1264
1262
1261
1263
1266
1269
1272
1273
1272
1270
1268
1266
1266
1268
1270
1273
1276
1277
1276
1274
1272
1271
1271
1272
1274
1276
1279
1280
1279
1279
1278
1276
1276
1277
1280
1282
1285
1286
1286
1284
1283
1282
1283
1284
1287
1290
1293
1295
1295
1294
1294
1293
1293
1296
1299
1303
1306
1308
1307
1307
1306
1306
1308
1311
1315
1320
1324
1325
1326
1326
1326
1325
1327
1331
1334
1339
1342
1344
1344
1343
1342
1342
1343
1344
1348
1352
1355
1355
1353
1351
1349
1347
1345
1344
1344
1345
1344
1340
1336
1330
1324
1319
1315
1312
1310
1310
1308
1305
1301
1295
1290
1286
1283
1282
1282
1282
1281
1279
1275
1271
1267
1264
1263
1263
1264
1266
1267
1266
1264
1261
1258
1256
1255
1256
1259
1261
1262
1261
1260
1257
1255
1254
1254
1255
1257
1259
1260
1260
1259
1257
1254
1253
1254
1256
1258
1261
1262
1261
1260
1258
1255
1254
1254
1256
1258
1260
1263
1262
1259
1257
1256
1255
1255
1256
1259
1261
1261
1261
1259
1257
1255
1253
1254
1255
1258
1260
1261
1260
1258
1256
1254
1253
1254
1255
1257
1259
1261
1260
1258
1255
1252
1251
1252
1254
1257
1258
1259
1258
1256
1254
1252
1251
1251
1253
1256
1258
1259
1257
1255
1252
1250
1249
1251
1252
1254
1256
1256
1255
1253
1251
1249
1247
1249
1251
1253
1255
1256
1254
1252
1249
1248
1247
1248
1250
1252
1254
1254
1254
1252
1250
1247
1246
1247
1250
1253
1254
1254
1253
1252
1249
1247
1247
1248
1250
1252
1254
1254
1254
1252
1249
1248
1247
1248
1250
1252
1253
1254
1253
1251
1249
1247
1247
1248
1250
1252
1254
1254
1253
1251
1248
1246
1246
1248
1251
1253
1254
1255
1253
1251
1249
1248
1248
1248
1251
1253
1254
1254
1253
1252
1251
1251
1252
1255
1259
1264
1268
1270
1269
1267
1263
1259
1258
1260
1264
1269
1274
1276
1275
1275
1273
1270
1268
1269
1270
1272
1274
1273
1271
1268
1264
1260
1258
1258
1259
1261
1262
1261
1258
1255
1252
1249
1248
1248
1251
1253
1254
1254
1252
1250
1248
1246
1246
1247
1250
1252
1253
1253
1252
1249
1247
1246
1246
1247
1250
1252
1255
1253
1252
1250
1247
1246
1247
1248
1251
1254
1256
1257
1257
1253
1249
1248
1248
1252
1269
1295
1327
1361
1397
1431
1465
1492
1510
1492
1447
1397
1344
1308
1294
1287
1277
1262
1241
1221
1206
1196
1190
1184
1183
1184
1186
1189
1193
1200
1211
1222
1232
1239
1244
1247
1249
1251
1255
1259
1263
1266
1266
1266
1264
1262
1261
1261
1263
1265
1268
1270
1271
1271
1269
1267
1266
1266
1267
1269
1272
1275
1276
1275
1273
1271
1269
1270
1270
1273
1277
1279
1280
1279
1277
1275
1274
1274
1276
1278
1281
1285
1286
1286
1283
1281
1281
1281
1283
1287
1290
1293
1295
1294
1293
1291
1291
1291
1294
1297
1300
1303
1305
1306
1305
1304
1303
1305
1308
1312
1316
1320
1322
1323
1323
1323
1323
1325
1328
1334
1339
1342
1344
1345
1345
1345
1344
1345
1347
1352
1357
1359
1360
1360
1359
1357
1356
1356
1358
1359
1360
1360
1357
1354
1351
1345
1339
1335
1332
1330
1329
1326
1323
1319
1314
1308
1302
1299
1296
1295
1295
1294
1291
1286
1282
1277
1273
1272
1271
1272
1274
1274
1271
1269
1267
1264
1261
1260
1263
1265
1265
1266
1266
1265
1262
1259
1258
1259
1261
1263
1265
1267
1268
1266
1264
1262
1260
1259
1261
1263
1265
1267
1266
1265
1263
1261
1261
1261
1262
1266
1268
1269
1268
1265
1262
1260
1259
1261
1262
1265
1267
1268
1267
1266
1262
1260
1260
1260
1262
1264
1267
1268
1268
1266
1263
1261
1260
1259
1261
1262
1264
1264
1265
1263
1261
1258
1258
1260
1261
1264
1265
1264
1264
1262
1259
1256
1256
1257
1258
1260
1263
1264
1263
1261
1259
1256
1255
1254
1256
1259
1261
1262
1262
1259
1256
1254
1253
1255
1257
1259
1261
1260
1259
1257
1255
1254
1254
1255
1256
1257
1259
1259
1258
1255
1252
1252
1253
1254
1256
1259
1259
1259
1258
1256
1253
1250
1250
1252
1254
1257
1259
1258
1256
1252
1249
1247
1248
1250
1253
1255
1257
1257
1255
1252
1249
1248
1247
1249
1252
1254
1255
1256
1254
1252
1249
1247
1247
1248
1251
1255
1257
1256
1253
1249
1246
1244
1245
1248
1250
1252
1254
1255
1254
1253
1251
1251
1252
1253
1258
1262
1264
1266
1265
1262
1257
1255
1256
1260
1264
1270
1275
1274
1273
1271
1269
1266
1264
1264
1266
1269
1270
1268
1265
1262
1257
1255
1254
1254
1255
1257
1258
1256
1253
1250
1246
1243
1244
1245
1245
1247
1249
1249
1248
1244
1242
1240
1241
1243
1245
1247
1249
1248
1246
1244
1241
1240
1242
1244
1247
1247
1247
1248
1245
1243
1241
1241
1244
1246
1248
1250
1252
1251
1249
1246
1245
1242
1244
1257
1279
1310
1343
1376
1409
1442
1466
1485
1479
1438
1390
1344
1308
1296
1292
1285
1274
1259
1239
1224
1209
1199
1193
1189
1185
1183
1184
1188
1193
1199
1208
1217
1227
1233
1237
1239
1240
1244
1248
1252
1256
1258
1257
1256
1256
1255
1254
1254
1255
1257
1259
1262
1263
1262
1260
1259
1257
1257
1258
1260
1263
1264
1267
1266
1264
1263
1261
1262
1262
1264
1267
1269
1270
1270
1269
1267
1266
1266
1267
1269
1272
1275
1275
1274
1274
1272
1270
1270
1272
1275
1277
1281
1284
1282
1281
1280
1280
1282
1284
1286
1289
1292
1293
1293
1291
1290
1291
1293
1296
1300
1305
1309
1312
1313
1312
1312
1311
1313
1316
1322
1325
1329
1331
1331
1331
1331
1332
1333
1336
1340
1344
1346
1346
1346
1344
1342
1341
1341
1342
1344
1345
1343
1341
1335
1329
1324
1320
1315
1312
1311
1311
1309
1305
1299
1293
1287
1281
1278
1276
1277
1277
1274
1271
1267
1262
1259
1256
1255
1256
1257
1258
1257
1254
1251
1249
1246
1245
1244
1246
1249
1250
1250
1249
1248
1244
1242
1241
1242
1244
1248
1250
1251
1249
1245
1242
1240
1238
1239
1242
1245
1246
1248
1248
1245
1243
1242
1242
1243
1244
1246
1248
1248
1248
1246
1244
1242
1241
1242
1244
1247
1248
1248
1249
1246
1244
1243
1241
1241
1244
1247
1249
1250
1248
1245
1243
1241
1241
1241
1242
1245
1246
1247
1246
1243
1240
1239
1238
1239
1241
1242
1244
1245
1245
1242
1239
1238
1236
1236
1238
1241
1244
1244
1243
1240
1239
1236
1236
1237
1240
1242
1243
1243
1242
1240
1237
1236
1236
1236
1239
1241
1242
1243
1243
1240
1237
1235
1234
1236
1239
1241
1241
1241
1239
1236
1235
1234
1233
1235
1238
1240
1241
1241
1239
1237
1235
1234
1234
1235
1238
1240
1242
1241
1239
1237
1234
1232
1232
1234
1236
1238
1240
1240
1238
1235
1233
1232
1232
1233
1236
1238
1240
1240
1238
1236
1234
1234
1235
1237
1240
1244
1246
1248
1248
1248
1247
1245
1243
1242
1245
1248
1252
1254
1256
1255
1253
1253
1254
1254
1255
1254
1254
1255
1253
1251
1247
1244
1242
1242
1243
1244
1243
1241
1239
1235
1232
1230
1230
1230
1231
1234
1235
1235
1233
1230
1228
1227
1227
1229
1231
1233
1234
1233
1231
1228
1225
1224
1224
1227
1229
1231
1232
1232
1230
1227
1225
1224
1225
1227
1229
1230
1232
1231
1230
1229
1228
1228
1228
1230
1231
1234
1248
1270
1297
1328
1361
1397
1432
1459
1478
1467
1424
1371
1319
1282
1269
1265
1260
1252
1236
1216
1199
1183
1173
1165
1160
1159
1162
1168
1174
1180
1187
1194
1201
1207
1212
1218
1224
1230
1235
1239
1240
1240
1238
1237
1236
1236
1238
1241
1244
1246
1246
1245
1244
1241
1240
1240
1241
1244
1247
1248
1249
1248
1246
1244
1242
1243
1244
1247
1251
1253
1253
1252
1249
1247
1246
1247
1249
1252
1254
1256
1257
1256
1253
1251
1251
1252
1254
1257
1261
1263
1264
1262
1261
1260
1259
1260
1263
1267
1271
1272
1273
1273
1271
1271
1271
1272
1275
1280
1284
1287
1289
1288
1287
1287
1288
1290
1293
1298
1303
1306
1307
1306
1307
1307
1307
1309
1313
1316
1319
1322
1323
1322
1321
1320
1318
1319
1321
1323
1325
1324
1321
1318
1313
1309
1304
1301
1298
1297
1296
1293
1289
1283
1276
1271
1267
1264
1263
1262
1260
1258
1255
1250
1245
1241
1237
1235
1236
1237
1238
1237
1235
1232
1228
1225
1224
1223
1225
1226
1228
1228
1226
1224
1221
1218
1217
1217
1219
1223
1225
1226
1225
1223
1221
1218
1217
1218
1220
1222
1224
1225
1224
1222
1221
1219
1219
1219
1221
1224
1225
1226
1225
1223
1221
1220
1218
1219
1222
1224
1226
1227
1226
1224
1221
1219
1219
1221
1223
1225
1226
1227
1226
1223
1222
1220
1219
1219
1222
1224
1225
1227
1226
1223
1220
1218
1217
1218
1221
1223
1224
1225
1223
1221
1219
1217
1216
1217
1220
1222
1224
1223
1222
1219
1217
1215
1216
1216
1218
1221
1223
1222
1221
1219
1216
1213
1213
1216
1218
1220
1220
1220
1219
1217
1214
1213
1214
1215
1217
1219
1221
1220
1219
1217
1215
1213
1212
1213
1216
1218
1220
1220
1218
1216
1213
1212
1211
1213
1216
1218
1219
1219
1217
1215
1212
1211
1211
1212
1215
1216
1218
1219
1218
1215
1212
1210
1211
1212
1214
1217
1218
1217
1216
1214
1210
1209
1210
1212
1214
1215
1217
1216
1215
1212
1210
1209
1210
1211
1213
1215
1217
1217
1216
1213
1211
1209
1210
1212
1214
1216
1217
1216
1214
1213
1211
1212
1214
1217
1221
1224
1228
1230
1230
1229
1227
1225
1223
1224
1228
1232
1235
1238
1238
1235
1235
1235
1234
1235
1236
1237
1238
1238
1235
1231
1228
1224
1223
1223
1225
1225
1225
1225
1222
1218
1215
1214
1213
1214
1216
1218
1219
1217
1215
1213
1210
1210
1212
1213
1215
1217
1218
1218
1215
1213
1210
1210
1211
1213
1216
1218
1219
1218
1216
1214
1212
1211
1212
1215
1217
1219
1220
1220
1219
1218
1217
1215
1215
1217
1220
1229
1249
1276
1308
1342
1376
1414
1446
1472
1476
1439
1388
1331
1284
1261
1252
1246
1238
1224
1203
1185
1170
1159
1150
1146
1148
1150
1154
1161
1167
1176
1186
1193
1198
1203
1208
1212
1218
1223
1228
1232
1233
1231
1229
1227
1225
1225
1227
1230
1233
1235
1235
1235
1233
1231
1229
1228
1230
1233
1236
1238
1239
1238
1236
1234
1234
1234
1237
1238
1240
1242
1243
1242
1241
1239
1238
1238
1240
1243
1246
1248
1248
1247
1246
1244
1243
1243
1245
1248
1252
1254
1254
1254
1252
1252
1253
1254
1256
1259
1262
1264
1265
1265
1264
1265
1264
1265
1268
1273
1277
1281
1284
1285
1284
1283
1283
1285
1289
1294
1299
1301
1303
1304
1304
1304
1305
1309
1313
1317
1320
1321
1322
1322
1321
1320
1319
1320
1323
1326
1327
1327
1325
1320
1315
1310
1306
1303
1302
1302
1301
1297
1292
1286
1280
1274
1269
1267
1266
1264
1263
1260
1257
1253
1247
1242
1239
1237
1238
1238
1238
1237
1237
1234
1229
1226
1223
1222
1225
1228
1229
1230
1228
1225
1222
1219
1218
1220
1223
1226
1228
1228
1226
1224
1220
1219
1219
1219
1220
1222
1225
1225
1223
1222
1221
1220
1219
1219
1222
1224
1225
1225
1224
1222
1221
1219
1219
1220
1222
1223
1225
1225
1223
1221
1219
1216
1216
1218
1219
1221
1223
1223
1221
1220
1218
1217
1216
1216
1218
1220
1222
1222
1221
1219
1215
1212
1212
1213
1215
1219
1219
1218
1217
1216
1214
1213
1212
1213
1214
1216
1219
1219
1216
1213
1211
1211
1211
1212
1214
1217
1220
1220
1217
1215
1212
1209
1209
1211
1214
1216
1217
1216
1214
1212
1211
1209
1209
1210
1213
1216
1217
1216
1214
1211
1208
1207
1208
1208
1211
1213
1215
1215
1214
1212
1209
1207
1208
1209
1211
1213
1215
1215
1213
1210
1207
1205
1205
1208
1211
1215
1216
1213
1211
1209
1207
1205
1205
1206
1210
1214
1215
1214
1211
1208
1206
1206
1206
1206
1208
1211
1214
1213
1211
1209
1206
1205
1206
1206
1208
1212
1215
1213
1210
1208
1205
1203
1203
1205
1208
1211
1214
1214
1214
1212
1210
1210
1212
1216
1221
1225
1226
1225
1222
1218
1216
1217
1220
1226
1230
1232
1234
1234
1231
1229
1225
1221
1221
1224
1226
1227
1227
1225
1222
1218
1215
1212
1211
1214
1216
1217
1215
1212
1209
1206
1204
1204
1205
1206
1209
1210
1210
1208
1206
1204
1203
1204
1204
1205
1207
1208
1209
1208
1205
1204
1203
1204
1204
1204
1207
1209
1209
1207
1206
1204
1203
1202
1204
1206
1209
1213
1214
1215
1213
1209
1206
1205
1215
1237
1267
1301
1337
1371
1400
1425
1442
1438
1403
1359
1313
1277
1265
1262
1256
1245
1228
1206
1188
1176
1167
1161
1157
1150
1148
1149
1154
1157
1161
1170
1180
1188
1196
1201
1205
1207
1209
1211
1214
1218
1221
1224
1225
1223
1222
1220
1220
1220
1221
1224
1227
1228
1229
1229
1227
1225
1224
1225
1225
1227
1231
1233
1232
1231
1230
1229
1228
1229
1230
1233
1237
1238
1238
1238
1235
1233
1232
1234
1237
1241
1244
1245
1247
1246
1243
1242
1240
1240
1242
1246
1251
1253
1253
1253
1252
1250
1249
1251
1254
1258
1263
1264
1265
1265
1264
1264
1264
1266
1271
1275
1278
1281
1282
1282
1282
1282
1283
1286
1290
1296
1300
1302
1304
1304
1304
1304
1305
1306
1309
1314
1317
1318
1318
1317
1316
1313
1311
1312
1312
1313
1313
1312
1309
1304
1298
1292
1289
1286
1284
1282
1280
1277
1273
1268
1262
1258
1253
1251
1250
1249
1248
1246
1243
1239
1234
1231
1229
1229
1229
1229
1231
1230
1228
1226
1223
1221
1219
1220
1222
1224
1225
1226
1225
1223
1220
1217
1217
1218
1219
1222
1224
1225
1223
1221
1219
1218
1217
1218
1220
1223
1225
1225
1224
1222
1220
1219
1218
1220
1222
1225
1226
1226
1225
1223
1222
1220
1220
1221
1224
1226
1227
1227
1226
1224
1221
1220
1220
1221
1224
1226
1227
1227
1226
1224
1221
1220
1219
1221
1223
1225
1227
1227
1225
1223
1221
1220
1220
1221
1224
1226
1227
1226
1224
1222
1220
1218
1218
1219
1221
1224
1226
1225
1223
1221
1219
1218
1218
1218
1221
1223
1225
1225
1223
1220
1218
1216
1216
1217
1220
1223
1224
1224
1222
1220
1218
1216
1216
1217
1220
1223
1224
1224
1222
1219
1217
1215
1215
1217
1220
1221
1222
1222
1221
1219
1217
1216
1216
1217
1220
1222
1222
1222
1221
1219
1216
1215
1215
1217
1220
1221
1222
1221
1221
1218
1216
1215
1215
1217
1220
1223
1223
1222
1221
1218
1216
1215
1215
1216
1219
1221
1222
1222
1221
1218
1215
1214
1215
1217
1220
1221
1222
1221
1219
1218
1216
1214
1214
1216
1219
1221
1223
1224
1223
1223
1221
1222
1224
1229
1234
1237
1236
1233
1229
1227
1227
1228
1233
1238
1241
1242
1244
1243
1240
1236
1233
1231
1232
1234
1236
1236
1236
1233
1229
1226
1223
1220
1220
1221
1223
1225
1225
1222
1218
1214
1211
1211
1211
1214
1217
1218
1218
1217
1215
1212
1211
1211
1212
1214
1216
1217
1218
1217
1215
1213
1211
1210
1211
1214
1216
1217
1217
1217
1215
1213
1211
1211
1212
1214
1217
1221
1222
1221
1218
1215
1212
1214
1228
1253
1285
1321
1356
1391
1426
1452
1469
1455
1412
1362
1311
1275
1262
1256
1246
1232
1210
1187
1171
1160
1154
1149
1149
1150
1151
1152
1155
1158
1167
1179
1191
1200
1207
1211
1213
1214
1216
1219
1221
1225
1227
1229
1230
1229
1227
1225
1224
1224
1226
1229
1231
1234
1234
1233
1230
1228
1227
1228
1231
1234
1236
1238
1237
1235
1234
1232
1231
1232
1234
1237
1240
1241
1241
1240
1239
1238
1237
1237
1240
1243
1245
1247
1247
1246
1245
1243
1243
1245
1247
1250
1253
1255
1255
1255
1253
1251
1252
1253
1256
1260
1263
1266
1267
1267
1266
1266
1267
1269
1273
1277
1281
1284
1285
1285
1285
1285
1286
1289
1293
1297
1301
1304
1305
1306
1305
1305
1306
1309
1313
1317
1318
1319
1319
1318
1317
1315
1314
1314
1315
1316
1316
1314
1311
1305
1299
1293
1289
1286
1285
1283
1281
1278
1274
1268
1262
1258
1253
1251
1250
1250
1250
1248
1245
1240
1235
1231
1229
1228
1229
1230
1231
1230
1228
1226
1222
1220
1219
1220
1221
1223
1225
1225
1224
1222
1219
1217
1217
1218
1220
1222
1223
1224
1223
1221
1219
1217
1216
1218
1221
1223
1225
1225
1224
1222
1220
1218
1218
1219
1222
1225
1226
1226
1225
1224
1221
1218
1219
1220
1222
1225
1227
1227
1226
1224
1222
1220
1220
1221
1223
1226
1227
1227
1225
1223
1221
1220
1219
1220
1222
1223
1225
1225
1224
1223
1220
1219
1219
1221
1223
1225
1226
1226
1224
1221
1219
1217
1218
1220
1221
1223
1225
1225
1224
1221
1219
1217
1217
1219
1222
1224
1225
1225
1223
1221
1218
1217
1217
1218
1221
1223
1224
1223
1222
1220
1218
1216
1217
1219
1220
1223
1225
1226
1224
1222
1219
1216
1216
1218
1220
1222
1224
1223
1221
1217
1215
1215
1215
1217
1219
1222
1223
1222
1220
1218
1216
1215
1215
1216
1219
1222
1224
1224
1221
1217
1215
1214
1215
1216
1219
1220
1221
1221
1220
1218
1215
1213
1213
1214
1216
1219
1221
1220
1217
1216
1214
1214
1214
1216
1218
1220
1220
1219
1216
1214
1213
1212
1212
1213
1216
1218
1219
1219
1217
1214
1213
1212
1212
1214
1216
1218
1220
1221
1220
1219
1218
1218
1221
1225
1230
1234
1233
1230
1225
1222
1222
1225
1229
1236
1240
1240
1241
1241
1237
1233
1230
1229
1230
1233
1235
1236
1234
1231
1226
1223
1218
1216
1217
1219
1221
1222
1221
1219
1215
1212
1210
1210
1211
1213
1215
1217
1217
1216
1213
1209
1208
1208
1210
1213
1216
1216
1217
1215
1212
1209
1208
1208
1210
1211
1216
1218
1217
1213
1211
1210
1210
1211
1213
1216
1218
1220
1221
1220
1218
1215
1210
1212
1226
1250
1282
1314
1349
1384
1416
1439
1456
1446
1407
1360
1314
1279
1268
1264
1256
1244
1226
1205
1190
1177
1168
1162
1157
1154
1153
1156
1160
1163
1169
1179
1188
1197
1203
1206
1209
1211
1214
1217
1220
1223
1226
1228
1229
1229
1226
1224
1223
1224
1227
1231
1233
1234
1233
1231
1229
1228
1228
1230
1232
1234
1237
1238
1237
1234
1232
1232
1232
1232
1234
1238
1242
1244
1243
1240
1238
1236
1235
1237
1240
1244
1247
1248
1247
1245
1243
1242
1242
1244
1247
1253
1256
1256
1255
1252
1250
1250
1251
1253
1257
1259
1263
1265
1266
1267
1266
1264
1266
1267
1271
1277
1279
1281
1283
1283
1284
1284
1285
1288
1293
1297
1301
1304
1305
1305
1304
1305
1305
1308
1312
1315
1318
1320
1321
1320
1318
1315
1314
1316
1318
1318
1318
1316
1311
1306
1301
1295
1291
1289
1288
1286
1283
1279
1274
1269
1264
1258
1254
1253
1251
1251
1250
1246
1243
1239
1235
1232
1230
1229
1230
1232
1230
1229
1226
1224
1221
1219
1218
1220
1222
1223
1224
1223
1222
1220
1217
1215
1216
1216
1218
1218
1220
1222
1220
1217
1216
1214
1213
1216
1218
1220
1222
1221
1220
1219
1216
1214
1214
1215
1218
1220
1221
1221
1220
1218
1215
1214
1217
1219
1222
1223
1222
1221
1220
1218
1215
1214
1215
1216
1218
1220
1221
1220
1219
1216
1215
1214
1213
1216
1219
1220
1221
1220
1218
1215
1212
1211
1210
1213
1216
1216
1217
1217
1217
1215
1213
1211
1212
1214
1216
1217
1218
1218
1215
1213
1210
1210
1212
1213
1215
1217
1217
1216
1215
1211
1209
1207
1207
1209
1213
1215
1215
1214
1213
1212
1210
1207
1207
1210
1212
1213
1213
1214
1212
1210
1208
1208
1209
1211
1213
1215
1215
1214
1213
1209
1208
1208
1209
1213
1214
1214
1214
1214
1212
1210
1208
1206
1208
1210
1214
1215
1214
1213
1210
1208
1205
1203
1205
1210
1213
1215
1216
1214
1211
1210
1208
1206
1207
1209
1211
1212
1212
1212
1209
1207
1207
1208
1208
1210
1211
1212
1212
1212
1211
1210
1211
1212
1213
1217
1221
1226
1227
1226
1222
1219
1215
1216
1220
1223
1228
1234
1235
1234
1233
1230
1226
1224
1224
1227
1231
1232
1231
1229
1224
1220
1217
1217
1216
1216
1218
1218
1218
1216
1214
1210
1207
1207
1208
1208
1210
1212
1213
1211
1210
1208
1206
1205
1207
1209
1211
1213
1212
1212
1210
1207
1206
1206
1209
1212
1212
1211
1213
1212
1211
1209
1208
1209
1211
1213
1214
1216
1217
1218
1216
1212
1210
1209
1209
1216
1234
1261
1291
1322
1355
1388
1417
1439
1451
1431
1393
1346
1302
1274
1266
1261
1253
1242
1225
1205
1189
1179
1170
1162
1155
1153
1153
1156
1163
1168
1176
1185
1192
1198
1203
1206
1210
1215
1220
1224
1229
1230
1229
1229
1227
1225
1225
1227
1231
1233
1235
1236
1235
1235
1233
1231
1231
1232
1234
1236
1239
1240
1240
1239
1235
1234
1234
1235
1239
1241
1244
1246
1245
1244
1242
1240
1240
1241
1243
1247
1249
1251
1250
1249
1248
1246
1246
1248
1251
1254
1257
1258
1258
1257
1257
1255
1255
1258
1260
1263
1267
1269
1269
1269
1268
1268
1269
1271
1275
1279
1283
1285
1286
1288
1287
1287
1288
1292
1296
1301
1306
1308
1309
1309
1308
1308
1310
1313
1318
1321
1324
1325
1325
1324
1323
1322
1322
1323
1325
1326
1326
1325
1322
1318
1313
1309
1306
1304
1302
1300
1297
1294
1289
1283
1276
1271
1269
1267
1267
1266
1265
1262
1258
1253
1248
1244
1243
1243
1245
1246
1246
1244
1242
1239
1237
1234
1233
1234
1236
1237
1238
1237
1234
1232
1230
1228
1229
1231
1235
1236
1237
1237
1236
1233
1231
1230
1229
1230
1233
1236
1237
1237
1235
1233
1230
1229
1229
1232
1234
1236
1238
1238
1236
1234
1232
1231
1231
1233
1236
1238
1239
1238
1237
1235
1233
1232
1233
1235
1237
1239
1241
1240
1237
1235
1234
1232
1233
1235
1237
1239
1240
1241
1239
1237
1235
1234
1234
1235
1237
1240
1241
1240
1239
1236
1233
1232
1233
1235
1237
1238
1239
1240
1238
1234
1232
1231
1232
1234
1237
1238
1239
1239
1236
1234
1231
1231
1231
1233
1236
1238
1238
1238
1236
1234
1232
1231
1232
1234
1237
1238
1238
1238
1235
1233
1232
1231
1232
1234
1236
1239
1239
1238
1236
1233
1231
1230
1231
1234
1236
1238
1238
1238
1236
1234
1232
1232
1232
1234
1237
1239
1239
1238
1235
1233
1232
1232
1233
1235
1238
1239
1239
1237
1235
1233
1231
1232
1234
1236
1237
1239
1240
1239
1236
1234
1232
1232
1234
1236
1238
1239
1239
1238
1236
1234
1232
1232
1232
1235
1238
1240
1240
1239
1237
1234
1232
1232
1234
1237
1239
1241
1242
1243
1242
1240
1240
1241
1245
1250
1254
1258
1258
1254
1250
1246
1246
1247
1252
1258
1263
1264
1264
1264
1261
1257
1254
1253
1255
1258
1260
1260
1258
1255
1251
1247
1245
1243
1244
1246
1248
1247
1247
1244
1241
1238
1236
1236
1237
1240
1241
1243
1242
1240
1238
1237
1235
1235
1237
1240
1243
1244
1242
1240
1238
1237
1236
1236
1237
1240
1243
1244
1244
1242
1240
1238
1237
1237
1239
1242
1246
1249
1249
1246
1244
1242
1240
1244
1260
1285
1317
1353
1388
1424
1459
1486
1502
1485
1443
1393
1341
1303
1289
1281
1271
1256
1234
1212
1197
1186
1180
1176
1176
1178
1179
1181
1183
1189
1201
1213
1223
1232
1238
1241
1243
1245
1247
1249
1253
1256
1258
1260
1260
1258
1256
1255
1256
1256
1258
1261
1264
1265
1265
1263
1260
1259
1259
1260
1263
1266
1267
1268
1267
1265
1263
1262
1262
1263
1265
1269
1271
1272
1271
1269
1267
1266
1266
1269
1272
1274
1276
1277
1277
1275
1273
1272
1273
1275
1278
1282
1285
1285
1285
1284
1283
1282
1283
1286
1290
1293
1296
1297
1297
1297
1297
1297
1298
1301
1306
1310
1313
1315
1316
1316
1315
1316
1318
1322
1327
1331
1335
1337
1337
1337
1337
1337
1339
1343
1346
1350
1353
1353
1352
1351
1350
1349
1348
1349
1350
1352
1351
1349
1345
1340
1334
1329
1325
1324
1322
1321
1318
1313
1307
1301
1296
1292
1288
1286
1286
1285
1284
1281
1276
1272
1268
1264
1263
1263
1265
1265
1264
1263
1261
1257
1254
1253
1253
1254
1256
1257
1258
1258
1256
1254
1251
1249
1250
1252
1255
1257
1257
1257
1256
1253
1251
1250
1251
1252
1255
1257
1259
1258
1256
1253
1252
1251
1252
1254
1256
1259
1260
1259
1256
1255
1253
1252
1253
1255
1257
1259
1259
1259
1257
1255
1253
1252
1253
1255
1258
1259
1260
1258
1256
1254
1252
1251
1251
1253
1256
1258
1258
1257
1255
1253
1252
1252
1252
1254
1258
1260
1260
1258
1255
1253
1251
1250
1251
1254
1256
1257
1257
1256
1254
1253
1251
1249
1251
1253
1256
1257
1257
1257
1255
1252
1251
1252
1252
1252
1254
1256
1258
1257
1255
1252
1250
1249
1250
1253
1256
1257
1258
1256
1254
1251
1249
1249
1252
1254
1256
1257
1258
1256
1253
1250
1248
1248
1249
1252
1255
1257
1257
1256
1253
1250
1248
1249
1250
1253
1254
1255
1256
1254
1253
1250
1248
1249
1251
1254
1256
1257
1257
1255
1253
1251
1250
1251
1253
1254
1255
1258
1258
1256
1253
1251
1249
1248
1249
1251
1254
1256
1256
1255
1252
1250
1248
1248
1250
1252
1254
1255
1256
1255
1253
1251
1250
1249
1249
1251
1253
1254
1254
1254
1253
1252
1253
1255
1257
1261
1266
1269
1270
1269
1264
1260
1257
1258
1262
1267
1273
1277
1276
1275
1274
1272
1269
1267
1267
1270
1274
1274
1272
1269
1265
1260
1258
1258
1258
1258
1259
1261
1259
1257
1254
1250
1247
1247
1247
1250
1252
1252
1252
1251
1249
1245
1243
1244
1245
1248
1250
1251
1252
1250
1247
1246
1244
1244
1247
1249
1250
1252
1252
1251
1249
1246
1246
1246
1247
1251
1256
1258
1257
1254
1250
1248
1246
1245
1252
1270
1297
1328
1360
1392
1426
1458
1482
1496
1474
1432
1385
1338
1307
1298
1292
1281
1267
1249
1229
1215
1205
1198
1191
1187
1186
1187
1191
1196
1201
1209
1220
1228
1233
1237
1241
1245
1248
1250
1255
1260
1262
1263
1263
1262
1260
1259
1259
1259
1262
1265
1267
1267
1267
1266
1265
1263
1262
1262
1264
1267
1269
1270
1270
1268
1267
1266
1267
1269
1271
1274
1277
1277
1274
1273
1271
1270
1271
1273
1276
1280
1281
1281
1280
1278
1276
1275
1276
1279
1283
1286
1287
1288
1287
1286
1284
1283
1285
1287
1290
1293
1296
1298
1298
1297
1297
1299
1301
1304
1307
1311
1313
1315
1317
1318
1318
1317
1318
1321
1325
1330
1335
1336
1337
1338
1339
1339
1340
1343
1347
1350
1352
1353
1353
1351
1350
1350
1351
1353
1355
1356
1355
1352
1346
1340
1335
1332
1330
1330
1329
1327
1321
1316
1310
1304
1300
1296
1294
1293
1292
1290
1287
1284
1281
1277
1272
1269
1266
1266
1268
1268
1267
1266
1264
1261
1258
1255
1254
1256
1259
1261
1262
1259
1255
1253
1250
1249
1251
1253
1255
1256
1256
1254
1252
1250
1249
1248
1249
1252
1255
1256
1257
1255
1252
1250
1249
1248
1248
1251
1254
1256
1258
1256
1253
1252
1250
1249
1250
1252
1254
1257
1257
1256
1255
1253
1251
1248
1249
1251
1255
1257
1257
1256
1253
1251
1250
1249
1251
1253
1253
1255
1255
1255
1253
1251
1250
1248
1248
1251
1253
1255
1255
1254
1253
1251
1248
1248
1250
1252
1255
1256
1254
1253
1252
1249
1246
1246
1248
1251
1252
1252
1253
1254
1252
1248
1244
1246
1247
1248
1248
1249
1250
1250
1249
1247
1244
1245
1249
1251
1252
1254
1254
1253
1251
1249
1247
1246
1248
1249
1252
1254
1254
1252
1251
1249
1248
1247
1250
1251
1252
1254
1254
1252
1249
1248
1246
1246
1247
1249
1251
1253
1253
1252
1250
1247
1245
1244
1247
1250
1250
1250
1249
1248
1246
1243
1241
1243
1245
1247
1250
1252
1251
1250
1247
1245
1243
1243
1244
1247
1249
1250
1251
1251
1249
1248
1248
1248
1252
1259
1263
1266
1266
1263
1259
1256
1255
1257
1261
1267
1271
1273
1274
1273
1270
1266
1263
1262
1264
1268
1270
1269
1268
1264
1259
1255
1253
1252
1253
1256
1257
1257
1256
1254
1251
1247
1245
1245
1247
1249
1250
1251
1249
1248
1247
1245
1243
1244
1246
1249
1251
1252
1252
1250
1247
1244
1244
1245
1246
1248
1251
1252
1252
1250
1248
1245
1245
1247
1250
1253
1255
1257
1257
1254
1251
1249
1246
1250
1266
1291
1323
1356
1390
1423
1453
1476
1491
1478
1441
1395
1350
1317
1307
1303
1294
1282
1263
1241
1227
1215
1206
1202
1197
1193
1192
1194
1198
1201
1209
1219
1230
1238
1243
1247
1251
1253
1256
1259
1264
1268
1270
1271
1270
1269
1267
1266
1267
1267
1270
1274
1276
1276
1277
1275
1273
1272
1271
1272
1275
1278
1280
1281
1280
1279
1277
1276
1276
1278
1281
1283
1285
1286
1286
1284
1282
1281
1282
1284
1287
1289
1291
1292
1291
1290
1289
1289
1289
1291
1294
1297
1299
1299
1299
1299
1297
1297
1298
1300
1305
1309
1311
1312
1311
1310
1310
1311
1313
1316
1320
1325
1327
1330
1330
1329
1329
1329
1332
1336
1340
1344
1348
1350
1349
1349
1349
1350
1351
1354
1358
1363
1365
1365
1364
1362
1360
1358
1360
1361
1362
1362
1362
1359
1355
1350
1345
1341
1338
1336
1334
1333
1331
1327
1321
1316
1310
1307
1304
1303
1302
1302
1300
1297
1294
1289
1285
1283
1282
1282
1283
1283
1284
1282
1280
1276
1274
1272
1272
1274
1276
1277
1278
1277
1275
1273
1270
1269
1270
1272
1275
1277
1277
1275
1274
1272
1270
1270
1271
1272
1275
1277
1278
1277
1275
1272
1271
1270
1270
1273
1275
1277
1277
1277
1275
1273
1271
1271
1271
1272
1275
1278
1279
1278
1275
1272
1271
1271
1272
1274
1277
1278
1278
1277
1275
1273
1271
1271
1271
1273
1276
1277
1277
1276
1274
1272
1270
1269
1270
1273
1275
1276
1276
1274
1272
1270
1269
1270
1268
1272
1275
1276
1275
1275
1273
1270
1269
1268
1269
1271
1274
1275
1275
1274
1272
1270
1268
1268
1269
1271
1274
1275
1275
1273
1272
1269
1268
1267
1269
1271
1274
1275
1275
1273
1271
1269
1268
1268
1268
1271
1273
1275
1275
1273
1271
1269
1268
1268
1270
1272
1273
1274
1274
1274
1271
1269
1267
1267
1269
1271
1273
1275
1274
1273
1271
1269
1268
1269
1270
1272
1274
1276
1275
1274
1270
1269
1268
1268
1270
1272
1274
1276
1274
1273
1271
1270
1269
1269
1270
1272
1275
1276
1276
1274
1272
1270
1270
1270
1271
1274
1276
1277
1276
1274
1272
1270
1269
1269
1271
1273
1275
1276
1275
1273
1272
1270
1270
1272
1275
1278
1282
1284
1286
1287
1286
1286
1285
1284
1284
1285
1287
1289
1292
1293
1293
1291
1291
1293
1294
1295
1295
1294
1294
1293
1290
1287
1285
1284
1284
1284
1284
1283
1282
1280
1277
1275
1273
1272
1273
1274
1275
1275
1273
1272
1270
1267
1266
1268
1270
1272
1274
1274
1273
1271
1270
1267
1267
1267
1269
1272
1275
1275
1273
1271
1269
1268
1267
1269
1271
1273
1275
1276
1275
1274
1272
1272
1272
1272
1275
1276
1277
1284
1301
1324
1355
1389
1425
1464
1498
1526
1537
1502
1449
1392
1342
1315
1307
1303
1297
1283
1261
1241
1224
1211
1202
1198
1200
1204
1210
1217
1223
1229
1238
1245
1252
1257
1262
1270
1276
1281
1284
1286
1285
1284
1283
1282
1282
1284
1288
1291
1293
1293
1292
1290
1288
1286
1287
1289
1291
1294
1296
1296
1295
1293
1292
1291
1291
1293
1296
1298
1299
1300
1299
1297
1295
1294
1294
1297
1300
1302
1305
1306
1304
1301
1299
1298
1299
1301
1305
1307
1310
1310
1309
1308
1307
1308
1309
1311
1314
1316
1318
1320
1320
1318
1317
1318
1321
1324
1328
1331
1333
1334
1334
1334
1334
1336
1338
1342
1346
1350
1353
1355
1355
1355
1355
1356
1359
1363
1368
1371
1374
1375
1374
1372
1371
1372
1374
1376
1379
1381
1382
1381
1377
1373
1369
1366
1364
1363
1362
1360
1357
1354
1348
1341
1336
1332
1328
1326
1324
1322
1320
1316
1311
1306
1301
1299
1297
1297
1297
1297
1296
1294
1290
1287
1283
1280
1281
1282
1285
1286
1285
1283
1281
1278
1276
1276
1276
1277
1280
1281
1281
1280
1278
1276
1275
1275
1277
1279
1280
1279
1280
1279
1277
1275
1274
1274
1275
1278
1281
1282
1282
1281
1278
1276
1274
1274
1276
1279
1281
1283
1284
1282
1279
1275
1273
1272
1274
1276
1278
1281
1280
1278
1277
1274
1273
1272
1273
1277
1279
1280
1277
1275
1273
1270
1269
1269
1271
1274
1277
1278
1278
1277
1274
1271
1269
1269
1270
1272
1275
1277
1277
1275
1273
1271
1269
1269
1269
1271
1274
1275
1275
1274
1272
1269
1267
1266
1267
1270
1273
1274
1274
1272
1269
1266
1265
1265
1267
1269
1271
1272
1272
1271
1268
1267
1266
1266
1267
1269
1270
1271
1271
1270
1268
1267
1265
1265
1265
1267
1268
1270
1270
1270
1269
1267
1264
1264
1265
1267
1268
1271
1270
1269
1267
1263
1261
1262
1263
1266
1268
1269
1268
1267
1264
1263
1262
1262
1263
1266
1269
1270
1270
1268
1266
1264
1263
1262
1264
1266
1268
1270
1269
1268
1265
1263
1262
1262
1263
1265
1267
1270
1269
1268
1266
1266
1267
1268
1271
1276
1279
1282
1282
1280
1276
1272
1269
1271
1276
1281
1287
1290
1291
1290
1287
1284
1283
1282
1282
1284
1286
1286
1285
1282
1277
1274
1273
1273
1274
1276
1276
1275
1272
1269
1267
1263
1261
1261
1262
1264
1266
1266
1264
1263
1262
1261
1260
1260
1262
1264
1266
1267
1265
1263
1260
1258
1258
1260
1264
1265
1266
1267
1265
1262
1262
1261
1261
1263
1265
1267
1269
1270
1270
1268
1265
1263
1261
1264
1276
1299
1330
1363
1397
1429
1459
1483
1502
1496
1459
1414
1368
1332
1320
1317
1308
1298
1284
1261
1245
1232
1222
1217
1211
1206
1205
1205
1209
1214
1220
1229
1239
1246
1252
1256
1258
1261
1264
1268
1273
1277
1279
1280
1280
1278
1276
1276
1276
1278
1281
1284
1286
1286
1285
1281
1280
1280
1279
1281
1285
1288
1289
1290
1289
1286
1284
1283
1284
1287
1290
1293
1295
1293
1291
1290
1288
1287
1288
1291
1295
1297
1299
1300
1299
1297
1295
1294
1295
1297
1300
1303
1304
1305
1305
1303
1303
1303
1306
1307
1309
1313
1316
1318
1317
1315
1315
1314
1316
1320
1326
1331
1333
1336
1337
1335
1335
1336
1340
1344
1348
1352
1354
1355
1355
1355
1356
1357
1360
1362
1366
1370
1371
1372
1372
1370
1368
1366
1366
1369
1371
1370
1370
1366
1362
1357
1352
1349
1346
1343
1341
1338
1334
1330
1325
1319
1315
1311
1307
1307
1305
1305
1303
1299
1294
1289
1285
1285
1284
1283
1283
1282
1282
1281
1279
1276
1273
1272
1272
1274
1276
1277
1275
1274
1272
1270
1269
1268
1269
1270
1273
1275
1274
1272
1271
1269
1268
1269
1268
1270
1272
1273
1275
1273
1270
1268
1268
1268
1269
1271
1272
1274
1274
1272
1271
1269
1267
1268
1269
1271
1273
1275
1276
1274
1271
1269
1268
1267
1268
1270
1274
1275
1275
1274
1272
1268
1266
1267
1268
1270
1273
1273
1274
1273
1270
1267
1265
1265
1266
1266
1269
1271
1271
1269
1265
1264
1263
1264
1266
1269
1271
1272
1272
1270
1268
1266
1263
1263
1265
1268
1269
1270
1268
1267
1267
1265
1264
1263
1264
1266
1268
1268
1268
1266
1264
1263
1262
1263
1264
1265
1267
1269
1269
1267
1264
1263
1263
1263
1263
1265
1267
1269
1268
1266
1264
1263
1263
1261
1262
1264
1268
1268
1267
1266
1263
1261
1260
1261
1263
1266
1268
1269
1268
1266
1263
1261
1260
1259
1262
1264
1267
1268
1267
1265
1263
1260
1259
1261
1263
1265
1267
1268
1267
1265
1263
1261
1262
1264
1267
1270
1272
1275
1277
1277
1278
1277
1275
1272
1272
1275
1279
1282
1286
1288
1286
1284
1283
1284
1284
1284
1284
1285
1285
1284
1282
1279
1276
1275
1276
1277
1276
1275
1274
1272
1269
1267
1266
1266
1267
1267
1269
1268
1267
1265
1263
1261
1260
1261
1263
1267
1270
1270
1268
1265
1262
1260
1260
1262
1264
1266
1268
1268
1267
1266
1264
1263
1264
1265
1267
1270
1271
1271
1271
1271
1269
1267
1266
1269
1270
1271
1278
1294
1318
1346
1378
1412
1446
1477
1499
1509
1484
1440
1391
1346
1322
1317
1314
1306
1296
1277
1259
1242
1228
1217
1210
1205
1204
1208
1215
1222
1226
1231
1238
1244
1250
1255
1261
1267
1273
1278
1282
1283
1283
1281
1279
1279
1281
1283
1285
1288
1289
1290
1288
1287
1285
1283
1284
1287
1290
1292
1294
1294
1293
1292
1289
1289
1290
1293
1296
1297
1300
1299
1298
1296
1295
1295
1297
1299
1301
1302
1303
1303
1303
1303
1301
1300
1302
1304
1307
1309
1312
1313
1313
1311
1310
1310
1312
1315
1318
1321
1323
1323
1323
1324
1323
1323
1325
1329
1333
1337
1340
1341
1341
1341
1340
1341
1344
1348
1353
1357
1360
1362
1362
1361
1362
1363
1365
1370
1374
1377
1379
1379
1378
1377
1376
1375
1376
1379
1381
1382
1381
1379
1375
1371
1367
1363
1361
1359
1358
1355
1353
1349
1344
1338
1331
1327
1325
1323
1323
1322
1319
1315
1311
1307
1303
1300
1299
1299
1300
1300
1299
1296
1293
1290
1288
1287
1287
1288
1289
1291
1291
1290
1287
1284
1282
1281
1282
1284
1287
1289
1289
1287
1285
1283
1281
1281
1283
1285
1288
1289
1290
1288
1285
1282
1281
1281
1283
1286
1289
1290
1290
1288
1286
1284
1282
1282
1283
1285
1288
1290
1290
1289
1287
1285
1283
1283
1284
1287
1289
1291
1291
1289
1287
1285
1283
1283
1284
1287
1289
1290
1290
1289
1286
1284
1282
1282
1284
1286
1289
1290
1289
1287
1285
1282
1281
1282
1284
1286
1288
1289
1289
1287
1285
1283
1281
1282
1283
1285
1287
1288
1288
1286
1284
1281
1280
1281
1283
1285
1287
1288
1288
1286
1284
1282
1280
1280
1282
1285
1287
1288
1288
1285
1283
1282
1280
1281
1283
1285
1287
1288
1287
1285
1283
1281
1281
1282
1283
1285
1287
1288
1288
1287
1284
1282
1281
1281
1283
1285
1287
1289
1288
1286
1284
1282
1280
1281
1283
1286
1288
1288
1288
1286
1283
1281
1281
1282
1283
1286
1288
1289
1289
1286
1284
1282
1281
1282
1284
1287
1289
1289
1288
1286
1284
1282
1281
1283
1285
1287
1289
1289
1288
1286
1285
1285
1286
1288
1291
1294
1298
1301
1302
1303
1301
1298
1295
1295
1297
1301
1305
1308
1311
1309
1307
1307
1307
1307
1307
1308
1309
1310
1310
1306
1301
1298
1296
1296
1297
1298
1298
1298
1297
1294
1291
1289
1287
1286
1287
1289
1291
1291
1290
1287
1285
1283
1283
1285
1287
1288
1290
1290
1290
1288
1285
1283
1284
1286
1288
1290
1291
1292
1290
1288
1286
1284
1284
1286
1290
1292
1294
1293
1293
1292
1291
1288
1288
1289
1290
1296
1312
1336
1365
1398
1433
1468
1506
1535
1555
1537
1491
1436
1379
1341
1327
1320
1312
1300
1281
1261
1245
1232
1223
1216
1216
1219
1223
1229
1236
1242
1253
1262
1269
1274
1279
1284
1288
1293
1298
1302
1304
1305
1304
1302
1300
1300
1300
1302
1306
1308
1309
1309
1307
1305
1303
1303
1304
1306
1309
1312
1313
1313
1311
1309
1307
1307
1308
1311
1313
1315
1317
1316
1314
1313
1311
1310
1312
1315
1317
1320
1321
1321
1320
1318
1317
1316
1318
1321
1324
1327
1329
1329
1327
1326
1325
1325
1327
1330
1334
1336
1338
1339
1339
1339
1338
1339
1341
1345
1350
1353
1355
1356
1356
1355
1356
1357
1360
1365
1370
1374
1377
1378
1378
1378
1378
1380
1382
1387
1391
1394
1396
1396
1395
1394
1393
1393
1394
1396
1398
1400
1399
1396
1392
1387
1382
1379
1377
1375
1374
1371
1368
1363
1357
1350
1344
1340
1338
1337
1336
1334
1331
1327
1322
1317
1313
1311
1310
1311
1312
1311
1310
1307
1303
1300
1298
1297
1298
1300
1301
1302
1302
1300
1297
1294
1293
1293
1294
1296
1298
1299
1298
1297
1295
1292
1291
1291
1293
1296
1298
1300
1299
1298
1297
1295
1292
1292
1294
1296
1299
1300
1301
1299
1297
1295
1293
1294
1295
1298
1300
1301
1300
1299
1297
1295
1292
1292
1294
1297
1299
1299
1299
1298
1295
1293
1292
1292
1294
1297
1299
1299
1299
1297
1294
1292
1291
1291
1293
1295
1297
1298
1297
1295
1293
1290
1288
1289
1291
1295
1296
1297
1296
1294
1291
1289
1288
1288
1290
1293
1295
1296
1295
1292
1289
1287
1286
1287
1289
1292
1294
1295
1295
1293
1290
1287
1285
1286
1287
1290
1292
1293
1291
1290
1289
1287
1286
1287
1288
1290
1291
1291
1290
1289
1287
1286
1284
1284
1286
1289
1290
1291
1291
1289
1286
1285
1284
1284
1287
1289
1290
1291
1291
1288
1285
1283
1282
1282
1284
1287
1289
1291
1289
1288
1286
1284
1283
1284
1286
1288
1289
1289
1287
1285
1282
1280
1280
1282
1285
1288
1289
1289
1287
1285
1282
1281
1281
1281
1283
1287
1289
1289
1287
1284
1281
1281
1281
1281
1283
1286
1287
1288
1289
1286
1285
1285
1286
1289
1294
1300
1303
1303
1299
1294
1290
1290
1292
1297
1303
1305
1307
1308
1307
1304
1301
1298
1297
1299
1301
1302
1302
1299
1296
1292
1288
1286
1284
1285
1288
1289
1288
1287
1284
1280
1277
1277
1277
1278
1280
1282
1283
1281
1279
1276
1274
1274
1274
1276
1278
1280
1281
1280
1279
1276
1274
1273
1274
1276
1279
1282
1282
1280
1279
1277
1276
1274
1275
1276
1279
1282
1284
1285
1283
1279
1277
1274
1278
1294
1321
1353
1387
1422
1456
1487
1510
1524
1505
1463
1415
1367
1336
1327
1321
1312
1298
1278
1257
1242
1231
1225
1220
1217
1216
1215
1217
1221
1225
1233
1244
1254
1262
1268
1273
1276
1277
1277
1280
1283
1287
1290
1292
1290
1289
1288
1287
1287
1289
1291
1295
1297
1297
1297
1295
1291
1289
1289
1290
1293
1296
1299
1301
1300
1298
1296
1295
1294
1295
1298
1302
1304
1304
1302
1301
1300
1298
1298
1300
1304
1307
1308
1309
1308
1306
1303
1301
1302
1305
1307
1311
1313
1315
1316
1315
1313
1311
1312
1313
1318
1321
1324
1325
1325
1324
1324
1324
1326
1329
1334
1338
1342
1343
1344
1344
1344
1344
1345
1349
1353
1359
1363
1364
1364
1364
1363
1362
1364
1368
1373
1377
1381
1382
1380
1379
1377
1374
1374
1373
1374
1374
1374
1372
1369
1364
1358
1353
1349
1346
1344
1342
1340
1336
1331
1326
1320
1314
1310
1309
1309
1309
1308
1305
1300
1296
1291
1288
1287
1288
1288
1289
1290
1288
1286
1284
1281
1279
1277
1277
1278
1281
1282
1280
1279
1277
1274
1273
1272
1273
1276
1277
1278
1279
1278
1275
1273
1272
1272
1273
1276
1279
1279
1278
1277
1275
1273
1272
1272
1275
1278
1279
1279
1277
1276
1274
1272
1272
1273
1276
1279
1281
1281
1279
1277
1276
1274
1273
1273
1276
1280
1281
1282
1280
1278
1275
1273
1272
1274
1275
1278
1279
1280
1278
1276
1274
1272
1271
1272
1274
1277
1278
1278
1277
1276
1274
1271
1270
1270
1272
1275
1277
1277
1276
1276
1273
1269
1269
1270
1272
1274
1276
1277
1276
1274
1271
1269
1270
1271
1272
1274
1275
1276
1275
1273
1271
1268
1268
1269
1271
1274
1276
1275
1275
1272
1270
1269
1269
1271
1273
1274
1275
1275
1274
1272
1270
1269
1268
1269
1272
1274
1276
1277
1275
1272
1269
1267
1267
1268
1271
1274
1276
1276
1276
1274
1271
1268
1268
1268
1271
1274
1276
1276
1275
1273
1271
1270
1269
1271
1273
1275
1277
1277
1274
1271
1269
1268
1267
1270
1273
1275
1278
1277
1274
1273
1270
1268
1269
1272
1276
1280
1283
1284
1283
1283
1283
1286
1286
1286
1286
1286
1288
1289
1289
1291
1292
1292
1293
1294
1298
1299
1298
1295
1293
1291
1290
1288
1288
1288
1288
1289
1289
1287
1283
1281
1278
1276
1276
1277
1278
1278
1278
1277
1275
1273
1271
1270
1270
1272
1274
1276
1277
1277
1275
1272
1270
1269
1270
1272
1274
1276
1277
1277
1275
1272
1270
1270
1271
1273
1276
1277
1279
1278
1277
1274
1273
1272
1274
1277
1281
1282
1283
1282
1280
1286
1305
1332
1365
1403
1441
1478
1508
1527
1521
1481
1429
1377
1337
1324
1323
1319
1310
1293
1269
1248
1230
1218
1213
1212
1214
1218
1221
1225
1227
1230
1236
1245
1254
1263
1272
1279
1284
1285
1286
1286
1285
1285
1286
1290
1293
1295
1296
1295
1294
1292
1290
1290
1292
1294
1297
1299
1300
1300
1298
1295
1293
1293
1295
1298
1302
1304
1305
1304
1302
1300
1298
1298
1300
1303
1306
1308
1309
1308
1306
1305
1304
1304
1306
1310
1313
1314
1315
1315
1313
1311
1311
1313
1314
1317
1321
1324
1325
1324
1322
1320
1320
1322
1325
1329
1332
1335
1336
1336
1335
1335
1335
1338
1342
1347
1351
1356
1358
1359
1359
1360
1361
1363
1367
1371
1376
1379
1380
1379
1378
1378
1378
1379
1382
1385
1388
1389
1389
1387
1384
1381
1378
1376
1376
1376
1375
1372
1368
1364
1358
1351
1346
1343
1341
1340
1338
1336
1333
1328
1322
1317
1312
1311
1310
1310
1310
1309
1307
1303
1299
1295
1293
1292
1292
1294
1295
1295
1294
1292
1289
1287
1285
1285
1287
1290
1293
1294
1292
1289
1286
1284
1283
1283
1285
1288
1291
1292
1291
1289
1287
1285
1284
1284
1287
1290
1292
1293
1292
1290
1287
1285
1284
1285
1287
1290
1292
1293
1292
1290
1287
1286
1285
1286
1288
1291
1293
1294
1292
1291
1289
1286
1285
1286
1288
1291
1294
1295
1293
1291
1288
1286
1286
1286
1289
1291
1293
1293
1292
1289
1287
1286
1285
1286
1287
1290
1292
1292
1291
1289
1286
1283
1283
1284
1286
1288
1290
1291
1291
1287
1285
1283
1283
1284
1286
1288
1289
1290
1289
1286
1284
1282
1282
1283
1285
1288
1288
1288
1287
1286
1284
1281
1281
1283
1285
1287
1289
1290
1288
1285
1282
1281
1281
1282
1284
1287
1289
1290
1288
1285
1283
1281
1281
1282
1285
1287
1289
1288
1287
1285
1282
1280
1279
1282
1285
1288
1289
1288
1286
1284
1282
1280
1280
1282
1284
1286
1288
1289
1287
1284
1281
1280
1280
1282
1285
1288
1288
1288
1287
1284
1282
1281
1281
1283
1285
1287
1288
1288
1286
1284
1282
1280
1280
1282
1284
1287
1289
1288
1286
1283
1281
1280
1281
1282
1285
1287
1288
1287
1285
1284
1282
1281
1281
1285
1289
1293
1295
1296
1295
1295
1295
1296
1296
1298
1298
1299
1299
1300
1301
1302
1302
1302
1303
1306
1309
1310
1309
1306
1303
1302
1300
1298
1297
1297
1298
1299
1299
1296
1293
1290
1287
1285
1284
1286
1287
1288
1289
1287
1285
1282
1280
1278
1278
1281
1284
1286
1287
1286
1284
1282
1280
1278
1279
1281
1284
1285
1287
1285
1283
1281
1278
1278
1279
1282
1285
1287
1288
1287
1285
1282
1280
1280
1283
1287
1289
1289
1290
1288
1287
1298
1320
1350
1386
1424
1462
1500
1529
1547
1529
1481
1425
1371
1335
1326
1324
1318
1306
1285
1260
1240
1226
1217
1213
1215
1221
1225
1230
1233
1235
1240
1248
1257
1266
1275
1282
1289
1292
1294
1293
1293
1292
1292
1294
1297
1301
1303
1304
1303
1301
1299
1297
1297
1299
1301
1304
1306
1306
1305
1304
1302
1301
1302
1304
1306
1308
1310
1310
1308
1307
1305
1304
1305
1307
1310
1312
1313
1314
1313
1311
1309
1309
1310
1312
1316
1318
1321
1321
1320
1318
1316
1315
1316
1319
1324
1328
1330
1330
1330
1328
1327
1326
1327
1330
1334
1339
1341
1342
1342
1340
1341
1341
1345
1349
1353
1356
1359
1361
1362
1362
1362
1363
1366
1370
1375
1379
1382
1384
1384
1382
1381
1382
1384
1387
1390
1393
1394
1394
1392
1389
1386
1384
1384
1383
1382
1381
1379
1373
1368
1362
1356
1352
1349
1347
1345
1343
1340
1335
1329
1324
1320
1317
1314
1314
1315
1314
1313
1310
1305
1301
1297
1296
1296
1296
1298
1299
1298
1297
1295
1292
1289
1289
1289
1291
1292
1294
1294
1293
1290
1288
1285
1284
1284
1287
1290
1292
1293
1292
1289
1286
1285
1285
1286
1288
1291
1292
1293
1292
1289
1287
1286
1285
1286
1288
1291
1292
1293
1292
1289
1286
1285
1284
1285
1288
1290
1291
1292
1290
1287
1284
1282
1281
1282
1286
1289
1290
1290
1289
1286
1284
1281
1281
1283
1285
1287
1289
1289
1288
1285
1282
1280
1280
1281
1283
1287
1289
1287
1285
1283
1279
1277
1278
1281
1283
1284
1286
1287
1285
1282
1279
1277
1277
1278
1281
1284
1284
1284
1282
1279
1278
1277
1277
1278
1280
1282
1283
1284
1282
1280
1277
1277
1277
1276
1279
1281
1283
1282
1280
1278
1275
1274
1275
1276
1279
1282
1282
1282
1280
1278
1276
1274
1274
1276
1278
1281
1282
1281
1280
1277
1274
1272
1274
1277
1279
1279
1280
1279
1278
1276
1273
1273
1273
1275
1278
1279
1278
1277
1276
1275
1273
1272
1273
1275
1277
1279
1280
1278
1276
1274
1272
1271
1274
1275
1277
1278
1279
1279
1276
1273
1271
1270
1271
1272
1274
1277
1279
1278
1276
1273
1271
1270
1271
1275
1280
1281
1281
1280
1279
1280
1281
1283
1285
1287
1288
1286
1286
1286
1286
1287
1289
1291
1292
1294
1297
1298
1296
1293
1289
1288
1288
1288
1289
1291
1292
1290
1288
1284
1280
1275
1273
1272
1271
1273
1275
1277
1277
1275
1273
1269
1266
1265
1265
1269
1272
1273
1273
1271
1268
1266
1265
1265
1266
1270
1272
1273
1273
1272
1269
1267
1266
1264
1266
1271
1275
1276
1275
1272
1270
1267
1266
1265
1268
1272
1275
1275
1275
1274
1271
1274
1285
1308
1341
1377
1415
1451
1483
1504
1514
1491
1447
1398
1354
1329
1326
1325
1317
1303
1281
1258
1240
1227
1219
1217
1215
1215
1216
1219
1220
1220
1224
1230
1240
1252
1262
1269
1273
1275
1274
1274
1274
1276
1279
1284
1288
1289
1289
1288
1286
1284
1282
1280
1283
1286
1289
1292
1294
1291
1288
1286
1286
1286
1288
1291
1295
1296
1297
1295
1293
1291
1289
1290
1293
1297
1300
1301
1300
1300
1297
1296
1295
1297
1299
1301
1303
1305
1305
1304
1303
1302
1302
1303
1306
1308
1311
1314
1316
1314
1313
1312
1311
1313
1316
1320
1324
1326
1327
1328
1327
1326
1327
1330
1333
1339
1344
1347
1349
1348
1347
1348
1350
1353
1357
1361
1365
1368
1370
1370
1369
1368
1367
1369
1373
1377
1379
1381
1380
1376
1373
1371
1369
1368
1368
1369
1368
1365
1360
1353
1346
1341
1337
1335
1333
1332
1330
1327
1322
1315
1310
1306
1302
1300
1300
1301
1301
1299
1296
1291
1287
1284
1283
1283
1285
1288
1288
1288
1285
1282
1279
1276
1275
1276
1278
1282
1284
1284
1282
1279
1277
1275
1275
1276
1278
1281
1283
1283
1282
1280
1277
1276
1276
1277
1279
1283
1286
1286
1284
1282
1280
1279
1278
1279
1281
1284
1285
1285
1284
1282
1280
1279
1279
1279
1282
1285
1287
1287
1286
1283
1281
1279
1279
1281
1284
1286
1288
1287
1285
1283
1281
1279
1279
1281
1284
1286
1288
1287
1285
1283
1280
1278
1279
1281
1283
1285
1285
1285
1284
1281
1279
1278
1278
1279
1282
1284
1285
1285
1283
1280
1277
1276
1276
1278
1281
1283
1285
1284
1282
1280
1277
1276
1277
1279
1281
1282
1284
1284
1282
1279
1277
1276
1276
1278
1280
1283
1284
1283
1282
1279
1276
1275
1276
1277
1279
1282
1284
1283
1281
1278
1276
1275
1276
1278
1281
1282
1283
1283
1281
1278
1276
1275
1275
1277
1281
1283
1283
1282
1281
1279
1276
1275
1275
1278
1281
1282
1283
1283
1281
1278
1275
1274
1275
1277
1281
1283
1283
1282
1281
1279
1276
1275
1276
1278
1281
1283
1284
1283
1281
1278
1276
1275
1277
1279
1281
1283
1284
1283
1281
1279
1279
1279
1281
1284
1289
1293
1295
1296
1296
1294
1291
1287
1286
1290
1294
1298
1302
1304
1301
1299
1299
1299
1298
1299
1300
1302
1303
1302
1298
1294
1291
1288
1287
1289
1290
1291
1290
1289
1285
1282
1279
1277
1277
1279
1282
1284
1284
1282
1280
1277
1275
1274
1276
1278
1281
1283
1282
1281
1278
1275
1273
1274
1276
1278
1281
1282
1283
1282
1280
1278
1276
1276
1277
1280
1282
1284
1284
1283
1282
1281
1280
1280
1280
1282
1284
1289
1303
1326
1354
1387
1422
1459
1497
1527
1546
1526
1479
1423
1367
1331
1320
1313
1306
1296
1277
1256
1239
1225
1215
1207
1206
1209
1215
1221
1228
1234
1242
1249
1256
1261
1267
1273
1279
1285
1290
1294
1295
1294
1292
1290
1289
1290
1293
1296
1299
1300
1300
1298
1296
1295
1294
1295
1298
1301
1303
1304
1304
1302
1300
1298
1297
1299
1301
1305
1307
1309
1309
1306
1304
1303
1303
1303
1305
1309
1312
1313
1313
1312
1310
1308
1307
1309
1313
1317
1320
1321
1320
1319
1318
1317
1317
1318
1322
1326
1329
1331
1332
1331
1329
1328
1329
1332
1336
1341
1344
1346
1347
1347
1346
1347
1348
1351
1355
1360
1365
1368
1370
1369
1368
1369
1370
1373
1378
1383
1386
1388
1388
1387
1385
1385
1385
1387
1391
1393
1394
1394
1392
1387
1383
1379
1376
1374
1374
1373
1371
1367
1362
1356
1350
1345
1340
1337
1335
1335
1333
1330
1326
1321
1316
1311
1308
1308
1309
1310
1310
1308
1306
1302
1299
1296
1295
1296
1297
1299
1300
1299
1297
1295
1291
1290
1289
1290
1293
1296
1298
1297
1296
1294
1291
1290
1290
1291
1294
1296
1298
1299
1297
1295
1292
1291
1292
1293
1295
1298
1299
1298
1297
1294
1292
1291
1291
1293
1295
1298
1300
1299
1298
1296
1294
1292
1292
1294
1296
1299
1300
1300
1298
1295
1293
1292
1292
1294
1296
1299
1301
1300
1298
1295
1292
1291
1291
1293
1295
1298
1299
1299
1297
1294
1292
1291
1292
1293
1295
1298
1299
1299
1296
1293
1290
1289
1290
1292
1295
1296
1297
1296
1294
1293
1291
1289
1290
1292
1294
1296
1298
1296
1294
1291
1289
1288
1288
1290
1293
1296
1297
1296
1294
1291
1288
1287
1288
1291
1294
1296
1296
1295
1293
1291
1289
1289
1290
1291
1293
1295
1297
1296
1294
1291
1289
1288
1288
1291
1294
1297
1298
1297
1294
1291
1289
1287
1289
1291
1294
1295
1296
1295
1292
1290
1289
1288
1289
1291
1293
1296
1296
1295
1293
1291
1289
1288
1289
1292
1293
1295
1295
1293
1291
1289
1288
1288
1289
1291
1293
1294
1295
1295
1294
1291
1289
1289
1290
1292
1294
1296
1296
1295
1291
1288
1287
1286
1287
1290
1292
1294
1295
1294
1293
1292
1291
1291
1292
1296
1301
1305
1309
1310
1307
1303
1299
1296
1297
1301
1305
1311
1316
1316
1313
1312
1310
1308
1307
1307
1309
1311
1313
1312
1310
1306
1302
1298
1297
1298
1298
1299
1299
1297
1294
1292
1288
1284
1286
1288
1291
1294
1293
1290
1288
1286
1283
1283
1285
1287
1289
1291
1290
1290
1288
1285
1284
1284
1284
1286
1289
1291
1292
1291
1288
1286
1285
1285
1286
1288
1290
1292
1292
1292
1290
1289
1288
1288
1288
1289
1295
1312
1336
1364
1395
1427
1462
1496
1523
1540
1521
1478
1428
1377
1344
1333
1327
1319
1311
1295
1277
1262
1246
1235
1228
1224
1223
1225
1231
1238
1243
1249
1257
1264
1268
1274
1278
1283
1288
1294
1299
1302
1302
1300
1299
1298
1297
1297
1299
1302
1304
1306
1307
1305
1302
1300
1299
1300
1302
1306
1309
1310
1311
1309
1306
1305
1305
1306
1307
1311
1314
1316
1315
1312
1308
1307
1308
1310
1313
1317
1318
1319
1318
1317
1314
1313
1313
1313
1317
1321
1323
1324
1324
1322
1320
1320
1321
1322
1324
1328
1331
1333
1334
1334
1332
1332
1334
1337
1341
1344
1346
1348
1349
1351
1351
1350
1352
1355
1359
1364
1367
1369
1370
1370
1370
1370
1373
1376
1380
1384
1387
1390
1390
1388
1387
1386
1386
1387
1389
1393
1394
1392
1390
1386
1381
1377
1374
1373
1372
1370
1369
1365
1358
1352
1346
1339
1337
1336
1335
1333
1331
1329
1325
1318
1312
1309
1307
1308
1308
1309
1308
1306
1304
1301
1297
1294
1293
1294
1295
1298
1299
1297
1296
1293
1290
1288
1287
1288
1290
1293
1295
1294
1292
1289
1287
1287
1288
1289
1290
1292
1294
1293
1291
1289
1288
1287
1286
1288
1290
1293
1296
1295
1293
1290
1287
1286
1286
1286
1288
1292
1295
1296
1293
1290
1286
1286
1286
1288
1291
1294
1295
1294
1291
1288
1287
1286
1286
1286
1288
1290
1292
1293
1290
1288
1286
1284
1285
1286
1288
1288
1289
1289
1288
1285
1283
1281
1282
1284
1287
1290
1290
1289
1286
1284
1283
1280
1281
1283
1286
1288
1289
1289
1286
1284
1282
1281
1282
1283
1284
1286
1286
1286
1284
1282
1280
1278
1278
1280
1283
1284
1286
1286
1285
1282
1279
1279
1279
1281
1283
1286
1287
1286
1283
1280
1278
1278
1278
1281
1283
1285
1286
1285
1282
1279
1276
1276
1277
1280
1282
1284
1284
1283
1281
1279
1277
1276
1277
1279
1281
1283
1284
1283
1281
1280
1277
1274
1275
1279
1282
1285
1286
1285
1281
1279
1277
1276
1277
1279
1281
1283
1284
1284
1281
1279
1277
1277
1279
1280
1282
1284
1284
1284
1284
1283
1282
1282
1284
1288
1292
1296
1300
1300
1296
1291
1288
1287
1290
1294
1301
1307
1308
1306
1306
1304
1300
1295
1295
1298
1302
1304
1304
1302
1299
1294
1291
1289
1290
1291
1293
1294
1293
1291
1287
1282
1279
1278
1279
1282
1284
1286
1286
1284
1282
1280
1278
1278
1279
1281
1284
1286
1286
1285
1282
1280
1279
1279
1280
1283
1286
1287
1287
1286
1284
1281
1280
1280
1281
1284
1287
1290
1290
1290
1288
1286
1284
1283
1284
1295
1315
1344
1375
1408
1442
1474
1501
1521
1525
1494
1449
1401
1360
1339
1334
1327
1317
1304
1285
1269
1256
1247
1239
1232
1226
1223
1224
1230
1235
1241
1250
1259
1268
1274
1278
1281
1284
1288
1293
1297
1300
1302
1302
1301
1300
1299
1298
1300
1302
1306
1308
1309
1308
1307
1305
1303
1302
1304
1306
1310
1314
1314
1313
1311
1309
1307
1307
1308
1310
1312
1315
1317
1318
1317
1314
1312
1312
1313
1315
1319
1321
1322
1322
1322
1320
1319
1318
1320
1323
1326
1328
1330
1330
1329
1328
1326
1327
1329
1332
1335
1338
1340
1340
1340
1339
1339
1340
1342
1346
1351
1355
1357
1358
1358
1357
1357
1358
1360
1364
1370
1374
1376
1378
1378
1378
1378
1379
1381
1385
1389
1392
1393
1393
1392
1391
1390
1390
1390
1392
1393
1393
1392
1388
1384
1379
1375
1371
1368
1366
1366
1364
1361
1356
1350
1344
1339
1336
1333
1332
1332
1331
1329
1326
1321
1316
1313
1311
1311
1312
1312
1312
1311
1309
1306
1303
1300
1299
1300
1302
1304
1305
1305
1304
1301
1298
1296
1296
1297
1300
1301
1303
1303
1302
1299
1297
1295
1296
1297
1299
1302
1304
1304
1302
1300
1298
1297
1296
1298
1300
1302
1304
1304
1303
1301
1298
1297
1297
1298
1301
1303
1305
1305
1303
1301
1299
1297
1297
1299
1302
1304
1305
1305
1303
1300
1299
1297
1297
1299
1302
1304
1305
1305
1303
1301
1298
1296
1296
1298
1301
1303
1304
1304
1302
1299
1297
1296
1296
1297
1299
1302
1303
1303
1301
1299
1296
1294
1295
1296
1300
1302
1302
1302
1300
1297
1295
1294
1294
1296
1298
1300
1301
1301
1298
1296
1295
1293
1294
1295
1297
1300
1300
1300
1298
1296
1294
1293
1293
1295
1297
1299
1300
1299
1297
1295
1293
1292
1292
1294
1297
1298
1299
1299
1297
1295
1293
1292
1292
1294
1297
1299
1299
1299
1297
1294
1292
1291
1292
1294
1297
1299
1300
1299
1297
1295
1292
1291
1291
1293
1296
1299
1300
1299
1297
1295
1293
1292
1292
1294
1297
1299
1299
1298
1296
1294
1292
1292
1293
1295
1296
1298
1298
1298
1296
1294
1292
1291
1292
1294
1297
1299
1299
1298
1295
1293
1291
1291
1292
1296
1300
1303
1304
1304
1303
1303
1304
1306
1309
1310
1311
1311
1309
1308
1308
1309
1311
1312
1314
1317
1320
1321
1320
1317
1313
1311
1310
1310
1309
1310
1310
1310
1309
1306
1302
1299
1297
1296
1296
1298
1299
1299
1297
1296
1293
1291
1289
1289
1290
1293
1295
1296
1296
1294
1292
1290
1288
1287
1289
1291
1293
1295
1295
1294
1291
1289
1287
1288
1290
1292
1294
1296
1296
1295
1292
1290
1289
1291
1293
1297
1298
1299
1298
1296
1300
1316
1341
1375
1413
1451
1490
1525
1549
1555
1518
1466
1408
1359
1336
1333
1328
1320
1304
1278
1256
1239
1227
1221
1219
1224
1230
1235
1238
1240
1245
1252
1260
1269
1278
1287
1294
1299
1301
1302
1301
1300
1300
1301
1303
1307
1309
1311
1311
1310
1307
1305
1304
1305
1308
1311
1313
1314
1314
1312
1310
1308
1307
1308
1312
1314
1317
1319
1318
1316
1314
1312
1311
1313
1315
1318
1321
1322
1323
1321
1319
1317
1317
1318
1321
1324
1326
1328
1328
1326
1324
1323
1323
1325
1328
1331
1334
1336
1337
1335
1334
1334
1335
1336
1340
1344
1347
1349
1351
1351
1350
1350
1351
1353
1358
1362
1366
1368
1370
1370
1371
1371
1372
1375
1379
1384
1388
1390
1390
1390
1389
1389
1390
1392
1396
1399
1402
1402
1401
1398
1395
1392
1389
1389
1389
1389
1388
1384
1380
1374
1367
1362
1358
1355
1353
1352
1350
1347
1342
1337
1333
1327
1323
1321
1321
1321
1321
1319
1316
1312
1309
1305
1304
1304
1306
1307
1308
1307
1306
1303
1300
1297
1296
1297
1300
1302
1303
1303
1302
1300
1297
1294
1295
1297
1298
1300
1302
1302
1301
1299
1297
1295
1295
1296
1299
1303
1305
1305
1304
1301
1298
1296
1296
1297
1301
1303
1304
1304
1303
1301
1299
1297
1297
1298
1301
1304
1305
1304
1302
1300
1298
1296
1296
1297
1300
1302
1304
1303
1300
1299
1296
1296
1296
1296
1299
1302
1303
1302
1300
1298
1295
1294
1294
1296
1298
1300
1301
1301
1300
1297
1293
1292
1293
1295
1298
1300
1300
1298
1297
1294
1292
1292
1291
1293
1296
1298
1299
1298
1297
1295
1292
1291
1291
1293
1296
1298
1299
1297
1296
1293
1290
1289
1289
1292
1294
1296
1298
1296
1294
1291
1290
1289
1289
1290
1293
1295
1295
1294
1292
1289
1288
1287
1287
1290
1293
1295
1297
1296
1292
1290
1288
1286
1287
1289
1291
1293
1294
1293
1292
1290
1288
1286
1287
1290
1292
1294
1293
1292
1290
1288
1287
1287
1289
1290
1292
1293
1293
1292
1289
1286
1285
1285
1287
1290
1291
1292
1293
1292
1290
1288
1285
1284
1285
1287
1289
1292
1292
1292
1289
1286
1284
1284
1286
1287
1289
1292
1295
1294
1292
1291
1290
1292
1295
1301
1306
1307
1305
1300
1297
1296
1295
1298
1303
1308
1311
1312
1314
1312
1308
1304
1300
1301
1303
1306
1307
1307
1304
1302
1298
1294
1291
1290
1291
1292
1293
1294
1294
1291
1287
1283
1282
1281
1282
1283
1286
1288
1288
1286
1284
1282
1280
1281
1283
1284
1287
1288
1287
1285
1283
1280
1279
1279
1280
1284
1287
1288
1288
1286
1283
1282
1280
1281
1283
1286
1290
1293
1292
1290
1288
1284
1282
1293
1315
1347
1382
1418
1453
1486
1510
1527
1518
1478
1431
1384
1350
1339
1336
1328
1314
1296
1273
1256
1243
1235
1231
1228
1226
1225
1225
1228
1230
1235
1245
1256
1266
1274
1280
1282
1284
1285
1286
1288
1291
1294
1299
1300
1300
1299
1298
1295
1294
1295
1296
1300
1303
1304
1304
1303
1301
1298
1298
1299
1301
1305
1307
1307
1307
1305
1302
1301
1301
1303
1306
1308
1311
1313
1312
1309
1307
1306
1306
1307
1310
1314
1317
1316
1315
1315
1312
1311
1311
1313
1317
1320
1322
1323
1323
1322
1320
1320
1320
1321
1325
1329
1332
1334
1335
1335
1335
1333
1335
1338
1341
1346
1351
1354
1354
1354
1354
1355
1356
1358
1362
1368
1373
1374
1375
1375
1375
1375
1375
1377
1381
1385
1388
1390
1389
1387
1385
1384
1383
1383
1383
1384
1383
1380
1376
1370
1365
1359
1356
1353
1350
1349
1347
1343
1338
1334
1328
1323
1320
1318
1316
1316
1315
1312
1309
1305
1302
1299
1297
1296
1297
1298
1299
1298
1295
1293
1290
1288
1287
1287
1288
1290
1291
1292
1292
1287
1284
1281
1282
1284
1286
1288
1289
1289
1288
1285
1283
1283
1283
1284
1287
1289
1289
1288
1287
1286
1284
1282
1282
1284
1287
1290
1291
1289
1287
1285
1283
1282
1283
1284
1287
1289
1290
1290
1289
1288
1285
1283
1283
1286
1288
1289
1290
1288
1286
1284
1282
1280
1282
1284
1286
1288
1289
1288
1285
1283
1281
1280
1281
1282
1285
1287
1287
1286
1284
1281
1278
1278
1279
1281
1283
1285
1285
1283
1282
1280
1277
1276
1277
1279
1283
1285
1286
1285
1281
1279
1277
1275
1276
1278
1280
1282
1284
1283
1280
1277
1275
1275
1276
1278
1281
1282
1282
1282
1279
1277
1276
1274
1274
1277
1280
1283
1284
1283
1281
1278
1276
1274
1275
1277
1280
1281
1281
1281
1281
1276
1275
1275
1275
1278
1280
1282
1283
1282
1279
1276
1274
1273
1273
1276
1279
1281
1281
1280
1278
1276
1274
1274
1275
1278
1281
1282
1282
1281
1279
1275
1273
1273
1275
1278
1280
1281
1281
1279
1277
1276
1274
1274
1275
1277
1279
1282
1286
1285
1281
1279
1278
1280
1285
1290
1294
1296
1295
1292
1288
1285
1285
1287
1292
1298
1302
1304
1305
1304
1300
1296
1293
1292
1294
1298
1300
1299
1298
1295
1290
1287
1285
1282
1283
1286
1288
1289
1288
1284
1280
1276
1275
1274
1275
1278
1281
1282
1281
1280
1277
1275
1275
1276
1277
1279
1281
1282
1281
1280
1278
1276
1274
1274
1276
1279
1281
1282
1282
1281
1279
1276
1275
1276
1279
1281
1285
1288
1288
1286
1283
1281
1278
1280
1293
1317
1348
1382
1416
1449
1481
1505
1521
1512
1475
1429
1383
1349
1337
1332
1324
1311
1293
1271
1256
1243
1234
1229
1224
1221
1220
1221
1224
1229
1237
1249
1259
1268
1274
1278
1280
1281
1283
1286
1291
1294
1297
1299
1298
1297
1295
1294
1293
1295
1297
1301
1305
1306
1305
1302
1300
1298
1298
1299
1301
1304
1307
1308
1307
1306
1304
1303
1302
1303
1306
1309
1311
1312
1312
1310
1308
1307
1306
1309
1312
1315
1316
1318
1317
1315
1314
1312
1313
1314
1318
1322
1325
1326
1325
1324
1323
1322
1322
1325
1329
1333
1337
1338
1338
1338
1336
1335
1336
1339
1343
1348
1352
1354
1355
1355
1355
1355
1357
1362
1366
1371
1375
1376
1377
1377
1375
1375
1377
1380
1384
1388
1392
1392
1391
1389
1387
1385
1384
1385
1386
1388
1388
1386
1382
1376
1370
1365
1361
1358
1357
1356
1354
1350
1345
1339
1334
1329
1326
1324
1325
1324
1324
1321
1317
1312
1308
1304
1303
1304
1305
1306
1306
1305
1303
1299
1296
1293
1293
1294
1296
1299
1299
1299
1297
1293
1290
1289
1289
1291
1294
1296
1297
1297
1295
1293
1290
1289
1290
1292
1295
1297
1298
1298
1296
1294
1292
1290
1291
1293
1296
1298
1299
1299
1298
1295
1293
1292
1292
1294
1297
1300
1301
1300
1298
1296
1293
1291
1292
1295
1297
1299
1301
1300
1298
1296
1293
1291
1292
1295
1297
1300
1300
1299
1298
1295
1292
1291
1291
1293
1296
1298
1299
1299
1296
1293
1292
1290
1291
1293
1295
1298
1298
1298
1296
1293
1291
1290
1290
1292
1295
1297
1298
1297
1295
1292
1289
1288
1289
1291
1294
1296
1296
1296
1294
1291
1289
1288
1289
1291
1294
1295
1296
1296
1293
1290
1288
1287
1288
1291
1294
1296
1297
1295
1293
1290
1289
1288
1289
1291
1293
1295
1296
1295
1293
1290
1288
1288
1289
1290
1293
1295
1296
1295
1292
1290
1288
1287
1289
1291
1294
1296
1296
1294
1291
1289
1288
1288
1289
1291
1294
1295
1296
1294
1292
1289
1288
1287
1288
1291
1295
1297
1297
1295
1293
1290
1288
1288
1289
1292
1295
1296
1296
1294
1292
1290
1289
1288
1289
1292
1294
1296
1296
1295
1292
1289
1287
1287
1288
1291
1295
1298
1300
1299
1297
1296
1295
1297
1303
1308
1312
1312
1310
1306
1302
1300
1301
1304
1310
1315
1318
1319
1319
1317
1314
1309
1307
1308
1310
1312
1314
1313
1311
1307
1303
1299
1296
1295
1297
1300
1301
1302
1301
1297
1293
1290
1288
1288
1290
1292
1295
1296
1296
1294
1291
1288
1287
1287
1289
1292
1294
1295
1295
1293
1291
1288
1287
1287
1289
1293
1295
1296
1296
1294
1291
1289
1289
1290
1292
1295
1298
1300
1300
1298
1294
1293
1291
1297
1316
1344
1378
1414
1450
1485
1518
1542
1553
1525
1476
1424
1375
1346
1337
1328
1317
1301
1277
1257
1243
1235
1230
1227
1228
1230
1230
1232
1235
1242
1253
1266
1277
1285
1289
1293
1295
1295
1297
1300
1303
1308
1310
1311
1311
1309
1307
1305
1305
1307
1310
1313
1315
1316
1315
1313
1310
1309
1309
1311
1313
1316
1318
1319
1318
1316
1314
1312
1312
1313
1316
1319
1322
1324
1323
1320
1318
1317
1317
1318
1321
1325
1327
1327
1326
1324
1323
1323
1323
1325
1328
1332
1335
1335
1335
1333
1332
1331
1331
1334
1339
1343
1346
1347
1347
1346
1345
1346
1347
1350
1355
1359
1363
1365
1365
1365
1365
1366
1367
1371
1376
1381
1386
1388
1388
1388
1388
1388
1389
1391
1395
1399
1402
1404
1403
1401
1399
1398
1398
1399
1401
1402
1401
1399
1394
1388
1381
1377
1374
1372
1370
1369
1366
1361
1356
1349
1343
1338
1335
1333
1333
1333
1332
1329
1324
1317
1313
1311
1310
1310
1311
1313
1313
1312
1308
1304
1301
1299
1299
1300
1302
1304
1306
1305
1303
1298
1296
1294
1295
1296
1299
1301
1302
1302
1301
1299
1295
1295
1295
1297
1300
1303
1304
1303
1301
1299
1296
1295
1296
1298
1301
1303
1304
1303
1301
1299
1296
1295
1296
1298
1301
1304
1304
1303
1301
1299
1296
1294
1295
1297
1299
1302
1303
1302
1299
1297
1295
1294
1296
1297
1300
1302
1302
1300
1298
1296
1293
1292
1293
1295
1297
1299
1299
1298
1296
1293
1292
1292
1293
1295
1297
1299
1299
1297
1295
1291
1289
1288
1290
1292
1294
1296
1297
1295
1293
1291
1289
1289
1289
1291
1293
1295
1297
1295
1292
1290
1288
1287
1288
1290
1293
1295
1295
1292
1289
1287
1286
1286
1288
1290
1293
1294
1294
1292
1288
1286
1285
1285
1286
1288
1290
1292
1292
1290
1288
1286
1283
1283
1284
1287
1290
1291
1291
1289
1287
1284
1283
1283
1284
1286
1289
1290
1291
1290
1287
1284
1283
1283
1285
1288
1290
1290
1290
1288
1286
1283
1282
1283
1284
1287
1290
1290
1290
1289
1286
1282
1280
1280
1282
1285
1287
1289
1288
1287
1284
1283
1281
1281
1282
1285
1288
1289
1288
1285
1283
1281
1281
1281
1285
1288
1292
1295
1296
1295
1294
1295
1295
1294
1294
1295
1296
1299
1301
1301
1301
1301
1300
1301
1303
1305
1306
1304
1303
1301
1299
1298
1296
1295
1296
1297
1297
1296
1292
1289
1286
1284
1282
1281
1283
1284
1285
1285
1285
1283
1280
1278
1276
1276
1278
1281
1283
1284
1283
1281
1278
1277
1276
1276
1277
1279
1281
1283
1282
1280
1278
1277
1275
1275
1279
1282
1284
1284
1282
1280
1278
1277
1277
1279
1282
1284
1285
1285
1284
1288
1302
1325
1355
1389
1427
1465
1499
1522
1530
1501
1453
1401
1355
1332
1329
1328
1322
1309
1288
1266
1248
1233
1224
1220
1219
1221
1225
1230
1232
1233
1235
1242
1251
1259
1267
1275
1282
1287
1288
1288
1287
1287
1287
1289
1292
1295
1296
1297
1297
1295
1293
1291
1291
1294
1297
1299
1299
1300
1299
1297
1296
1295
1295
1297
1301
1304
1306
1307
1304
1301
1300
1300
1300
1301
1304
1307
1309
1309
1308
1306
1304
1303
1303
1304
1307
1312
1316
1317
1315
1313
1312
1310
1311
1312
1315
1319
1322
1323
1322
1321
1320
1320
1322
1325
1329
1333
1336
1337
1337
1337
1336
1337
1339
1342
1347
1352
1355
1358
1359
1358
1357
1358
1362
1365
1369
1373
1376
1378
1378
1378
1377
1378
1379
1381
1386
1390
1390
1389
1386
1383
1380
1377
1376
1375
1376
1376
1373
1368
1362
1356
1351
1346
1342
1339
1339
1337
1335
1330
1324
1319
1314
1311
1309
1308
1309
1309
1309
1305
1301
1297
1294
1292
1291
1291
1294
1296
1296
1294
1291
1288
1286
1285
1285
1287
1288
1290
1292
1291
1288
1285
1283
1282
1283
1285
1287
1290
1291
1290
1288
1286
1285
1284
1283
1285
1288
1290
1291
1290
1288
1286
1284
1283
1284
1287
1290
1291
1291
1291
1289
1288
1286
1285
1286
1288
1291
1293
1293
1293
1290
1287
1285
1285
1286
1288
1291
1293
1294
1293
1290
1287
1285
1285
1287
1289
1291
1293
1293
1291
1288
1286
1284
1284
1285
1287
1291
1292
1292
1291
1288
1285
1283
1282
1283
1286
1289
1290
1291
1291
1288
1285
1282
1282
1283
1286
1289
1290
1290
1290
1287
1285
1283
1282
1283
1286
1288
1289
1290
1289
1287
1285
1283
1283
1283
1285
1289
1291
1290
1289
1286
1284
1283
1282
1284
1286
1288
1290
1290
1289
1286
1284
1282
1282
1284
1286
1288
1291
1291
1289
1286
1283
1282
1282
1284
1287
1290
1291
1289
1288
1286
1284
1282
1283
1284
1287
1290
1291
1291
1289
1286
1284
1282
1282
1284
1287
1290
1290
1290
1289
1287
1283
1281
1282
1284
1286
1289
1291
1291
1288
1285
1283
1282
1282
1284
1287
1290
1291
1290
1288
1285
1284
1283
1285
1288
1292
1295
1297
1299
1300
1299
1298
1297
1297
1297
1299
1301
1303
1305
1306
1307
1306
1305
1306
1309
1311
1310
1309
1309
1307
1305
1301
1299
1297
1298
1300
1301
1300
1297
1295
1291
1288
1286
1286
1287
1289
1290
1290
1289
1287
1285
1283
1281
1282
1285
1287
1290
1291
1289
1287
1283
1281
1280
1282
1284
1287
1289
1290
1289
1287
1284
1283
1281
1283
1286
1289
1291
1292
1290
1288
1286
1284
1285
1286
1289
1292
1293
1293
1290
1293
1308
1332
1363
1400
1438
1478
1513
1539
1550
1519
1469
1412
1362
1336
1331
1328
1320
1307
1284
1260
1242
1229
1222
1218
1221
1226
1231
1236
1238
1240
1246
1253
1262
1271
1280
1289
1294
1298
1299
1298
1297
1296
1296
1299
1302
1305
1307
1309
1308
1306
1303
1302
1302
1303
1306
1310
1312
1313
1311
1309
1308
1306
1306
1309
1311
1314
1316
1317
1315
1313
1311
1310
1311
1313
1316
1318
1320
1321
1320
1318
1316
1315
1316
1317
1320
1323
1326
1327
1326
1324
1322
1322
1322
1325
1330
1333
1335
1336
1335
1334
1333
1333
1335
1338
1342
1346
1350
1351
1350
1349
1349
1349
1352
1356
1361
1365
1369
1370
1370
1371
1371
1371
1374
1378
1383
1388
1390
1392
1391
1390
1389
1390
1392
1395
1399
1403
1403
1403
1401
1398
1394
1392
1391
1390
1390
1389
1387
1382
1376
1370
1364
1358
1355
1353
1352
1351
1349
1344
1339
1333
1328
1324
1322
1322
1322
1321
1321
1318
1314
1310
1307
1305
1304
1305
1307
1308
1308
1306
1303
1300
1297
1295
1296
1298
1301
1303
1303
1302
1300
1297
1295
1295
1296
1298
1300
1302
1302
1301
1299
1296
1295
1294
1295
1298
1301
1303
1303
1302
1299
1297
1295
1294
1295
1298
1301
1304
1304
1302
1300
1297
1296
1296
1297
1299
1302
1303
1304
1303
1301
1297
1295
1296
1297
1299
1301
1303
1304
1303
1300
1296
1295
1294
1296
1299
1302
1304
1304
1302
1299
1296
1295
1294
1295
1298
1301
1302
1302
1300
1298
1295
1293
1292
1294
1297
1300
1302
1301
1300
1298
1295
1293
1293
1294
1296
1299
1302
1301
1299
1297
1294
1292
1292
1294
1297
1299
1300
1300
1298
1296
1293
1292
1292
1294
1296
1299
1301
1301
1298
1296
1293
1292
1292
1294
1296
1299
1300
1300
1298
1296
1294
1293
1293
1294
1297
1299
1300
1300
1298
1296
1293
1292
1292
1293
1296
1298
1299
1299
1297
1294
1292
1291
1291
1293
1297
1300
1301
1301
1298
1296
1292
1291
1291
1294
1297
1299
1299
1299
1297
1295
1293
1293
1293
1293
1297
1299
1300
1299
1296
1293
1291
1290
1291
1294
1297
1300
1301
1299
1296
1293
1291
1292
1293
1295
1297
1300
1300
1298
1296
1293
1291
1290
1292
1295
1298
1301
1303
1303
1302
1301
1300
1301
1304
1309
1313
1313
1312
1309
1307
1305
1306
1310
1313
1316
1320
1322
1323
1321
1315
1311
1310
1309
1310
1312
1314
1313
1312
1309
1305
1301
1298
1296
1297
1298
1300
1301
1300
1298
1294
1291
1289
1289
1290
1293
1296
1297
1298
1297
1294
1291
1288
1288
1288
1291
1294
1296
1297
1295
1292
1290
1288
1288
1290
1292
1294
1296
1296
1296
1294
1291
1290
1290
1291
1295
1298
1301
1300
1298
1294
1290
1290
1302
1325
1357
1393
1431
1467
1502
1527
1545
1533
1490
1441
1393
1357
1346
1341
1331
1318
1298
1274
1256
1244
1237
1234
1233
1234
1235
1236
1237
1239
1245
1255
1266
1275
1284
1289
1293
1294
1294
1296
1298
1300
1304
1306
1309
1309
1308
1306
1304
1303
1303
1305
1308
1311
1312
1312
1312
1310
1308
1306
1307
1309
1314
1317
1318
1317
1315
1312
1309
1309
1310
1312
1316
1318
1320
1321
1319
1316
1314
1314
1314
1315
1319
1323
1325
1325
1324
1322
1320
1319
1320
1323
1328
1331
1333
1333
1331
1329
1327
1328
1330
1334
1338
1341
1343
1344
1343
1342
1341
1342
1345
1348
1353
1358
1361
1362
1362
1363
1363
1364
1367
1371
1376
1382
1383
1383
1383
1383
1383
1384
1386
1391
1394
1397
1398
1398
1397
1394
1392
1391
1392
1393
1394
1394
1393
1389
1383
1377
1370
1365
1362
1361
1360
1359
1357
1350
1343
1337
1333
1330
1327
1325
1326
1324
1323
1320
1314
1310
1306
1303
1303
1305
1307
1308
1308
1305
1301
1297
1294
1293
1295
1297
1298
1300
1300
1297
1294
1293
1292
1291
1293
1295
1296
1297
1297
1296
1293
1291
1289
1288
1290
1293
1296
1296
1296
1295
1292
1290
1289
1290
1292
1293
1295
1297
1298
1297
1294
1289
1288
1289
1291
1293
1296
1297
1297
1295
1293
1292
1289
1288
1289
1293
1296
1297
1297
1294
1290
1288
1286
1287
1289
1291
1295
1297
1295
1292
1288
1287
1287
1287
1288
1290
1293
1294
1294
1292
1288
1285
1285
1285
1286
1288
1291
1292
1292
1290
1286
1283
1282
1283
1285
1287
1290
1291
1290
1287
1285
1284
1283
1283
1284
1288
1291
1291
1290
1288
1285
1283
1281
1282
1283
1286
1288
1290
1289
1287
1284
1281
1280
1281
1284
1287
1289
1290
1289
1287
1284
1282
1280
1281
1284
1286
1288
1289
1288
1286
1284
1281
1280
1281
1283
1285
1287
1287
1288
1286
1284
1282
1281
1281
1284
1288
1290
1290
1289
1286
1283
1281
1280
1281
1283
1287
1290
1290
1289
1287
1284
1281
1280
1282
1285
1287
1289
1290
1288
1287
1285
1282
1281
1281
1284
1288
1290
1290
1289
1287
1286
1285
1286
1287
1291
1296
1300
1301
1302
1301
1297
1292
1290
1292
1297
1302
1307
1311
1310
1308
1307
1306
1304
1302
1303
1306
1308
1308
1306
1304
1300
1296
1294
1294
1295
1297
1298
1298
1294
1291
1288
1284
1282
1283
1286
1289
1290
1290
1289
1287
1284
1282
1281
1283
1285
1288
1288
1289
1287
1285
1283
1281
1281
1282
1286
1289
1291
1291
1288
1287
1285
1283
1283
1284
1287
1290
1292
1292
1291
1290
1289
1288
1286
1287
1289
1292
1301
1320
1346
1375
1407
1441
1476
1506
1529
1533
1499
1450
1399
1356
1337
1333
1329
1322
1312
1294
1276
1260
1246
1236
1230
1225
1226
1230
1236
1243
1248
1254
1262
1267
1272
1276
1282
1289
1295
1300
1303
1304
1303
1301
1299
1299
1300
1303
1307
1309
1311
1311
1310
1307
1305
1304
1305
1309
1311
1314
1315
1315
1313
1311
1309
1309
1309
1311
1315
1318
1320
1319
1318
1315
1313
1313
1315
1318
1321
1324
1325
1324
1322
1321
1319
1319
1321
1324
1328
1330
1331
1331
1330
1328
1328
1327
1329
1332
1336
1339
1341
1342
1340
1338
1338
1339
1342
1346
1351
1354
1356
1357
1356
1355
1355
1356
1359
1364
1370
1374
1377
1378
1377
1377
1377
1378
1381
1386
1391
1394
1396
1396
1395
1393
1392
1392
1394
1396
1399
1401
1400
1397
1393
1388
1385
1382
1381
1380
1379
1378
1374
1368
1362
1356
1350
1346
1345
1343
1342
1342
1339
1335
1330
1324
1320
1318
1318
1319
1319
1319
1318
1315
1311
1307
1305
1303
1304
1307
1309
1309
1308
1307
1304
1301
1299
1299
1300
1303
1306
1307
1307
1305
1302
1300
1299
1299
1300
1303
1306
1307
1306
1304
1301
1300
1299
1299
1301
1304
1306
1308
1307
1305
1303
1301
1299
1300
1302
1304
1306
1308
1309
1306
1304
1301
1299
1300
1302
1305
1307
1309
1309
1307
1303
1302
1300
1300
1301
1304
1307
1308
1308
1305
1303
1300
1299
1299
1301
1305
1307
1308
1307
1305
1302
1299
1298
1298
1300
1303
1305
1307
1306
1304
1301
1298
1297
1297
1300
1303
1305
1306
1305
1302
1299
1297
1296
1297
1299
1302
1304
1305
1304
1301
1299
1297
1296
1297
1299
1301
1303
1305
1303
1301
1298
1297
1295
1296
1299
1301
1303
1304
1304
1301
1298
1296
1295
1296
1298
1301
1303
1304
1303
1300
1298
1296
1295
1296
1298
1301
1304
1304
1302
1300
1298
1296
1294
1296
1298
1301
1303
1303
1302
1299
1296
1295
1295
1296
1298
1301
1303
1303
1302
1300
1297
1295
1294
1296
1299
1301
1303
1304
1302
1299
1296
1295
1295
1297
1299
1301
1303
1303
1302
1300
1297
1295
1294
1296
1299
1301
1303
1303
1302
1299
1296
1295
1295
1296
1298
1301
1303
1303
1302
1300
1298
1297
1298
1301
1304
1308
1312
1315
1315
1314
1311
1309
1307
1308
1310
1314
1318
1322
1323
1321
1319
1318
1318
1318
1320
1321
1322
1322
1320
1317
1313
1309
1308
1308
1310
1311
1311
1310
1307
1304
1301
1298
1298
1298
1300
1302
1303
1303
1300
1298
1296
1294
1294
1295
1298
1300
1302
1302
1300
1297
1295
1293
1294
1295
1299
1301
1302
1301
1299
1297
1295
1293
1295
1297
1300
1302
1304
1303
1301
1299
1298
1299
1300
1301
1304
1306
1307
1316
1335
1360
1392
1427
1464
1503
1536
1562
1560
1518
1464
1405
1359
1340
1335
1330
1323
1308
1285
1266
1249
1237
1228
1226
1230
1235
1242
1248
1252
1258
1266
1272
1277
1284
1291
1299
1305
1309
1313
1314
1312
1311
1309
1309
1310
1313
1317
1319
1321
1320
1319
1317
1315
1314
1315
1318
1322
1324
1325
1324
1322
1320
1318
1318
1319
1322
1326
1328
1328
1327
1325
1323
1322
1322
1323
1325
1328
1330
1332
1332
1329
1327
1326
1326
1328
1331
1334
1337
1338
1338
1336
1334
1333
1333
1335
1338
1343
1346
1348
1348
1346
1344
1343
1345
1348
1351
1355
1359
1362
1361
1360
1359
1359
1361
1365
1370
1375
1378
1381
1382
1382
1381
1382
1383
1387
1392
1398
1401
1404
1404
1403
1402
1401
1401
1404
1407
1410
1412
1411
1408
1404
1400
1397
1395
1394
1394
1394
1392
1387
1380
1373
1367
1362
1359
1356
1355
1355
1353
1349
1342
1336
1331
1327
1325
1325
1325
1326
1326
1324
1322
1318
1313
1309
1308
1308
1310
1312
1313
1311
1309
1306
1303
1301
1300
1302
1305
1308
1309
1308
1306
1303
1300
1299
1301
1303
1304
1306
1307
1307
1306
1303
1301
1300
1301
1303
1306
1307
1308
1307
1304
1302
1300
1300
1299
1302
1305
1307
1309
1308
1305
1302
1298
1297
1298
1301
1304
1307
1307
1306
1303
1301
1299
1296
1296
1298
1301
1303
1304
1303
1300
1298
1296
1296
1296
1298
1301
1303
1304
1303
1299
1296
1294
1293
1294
1296
1298
1300
1301
1300
1298
1296
1293
1291
1291
1294
1296
1298
1299
1298
1296
1293
1290
1289
1290
1293
1297
1300
1300
1298
1295
1291
1289
1288
1289
1292
1295
1297
1297
1295
1294
1290
1288
1288
1288
1291
1294
1296
1295
1294
1292
1288
1286
1286
1288
1290
1293
1294
1295
1292
1289
1287
1285
1283
1285
1289
1292
1295
1294
1291
1290
1288
1285
1284
1285
1289
1291
1293
1293
1291
1289
1286
1284
1283
1285
1287
1289
1291
1292
1290
1288
1285
1283
1283
1285
1288
1290
1291
1289
1288
1286
1284
1282
1281
1283
1287
1290
1291
1291
1288
1285
1283
1282
1282
1283
1286
1289
1290
1289
1287
1283
1281
1281
1281
1285
1289
1292
1293
1294
1294
1293
1292
1293
1294
1297
1299
1299
1298
1298
1298
1297
1297
1300
1302
1304
1309
1311
1310
1307
1303
1302
1299
1298
1297
1299
1300
1300
1300
1298
1293
1289
1287
1285
1285
1286
1288
1289
1289
1287
1285
1282
1279
1278
1278
1280
1283
1285
1286
1286
1284
1281
1279
1277
1278
1280
1284
1287
1287
1285
1283
1280
1277
1276
1278
1282
1284
1286
1286
1286
1285
1282
1280
1280
1282
1285
1288
1290
1292
1291
1285
1283
1293
1315
1348
1384
1422
1458
1491
1515
1529
1516
1473
1423
1378
1346
1340
1338
1332
1321
1302
1276
1257
1242
1232
1229
1228
1228
1229
1232
1234
1235
1237
1243
1252
1262
1273
1280
1286
1287
1288
1288
1288
1289
1292
1295
1298
1301
1302
1302
1300
1297
1297
1296
1298
1300
1303
1306
1306
1305
1304
1300
1299
1300
1302
1305
1309
1311
1311
1309
1306
1304
1302
1302
1305
1308
1311
1312
1313
1313
1310
1308
1307
1309
1312
1317
1321
1321
1320
1318
1315
1312
1312
1314
1317
1321
1324
1327
1329
1328
1326
1325
1324
1325
1328
1331
1336
1340
1340
1338
1337
1335
1337
1340
1343
1349
1353
1355
1357
1358
1356
1356
1357
1360
1364
1369
1373
1377
1378
1377
1376
1375
1376
1378
1380
1384
1388
1390
1391
1388
1386
1383
1380
1380
1381
1382
1381
1380
1375
1368
1363
1357
1353
1349
1347
1345
1344
1341
1336
1330
1325
1320
1315
1313
1313
1313
1313
1312
1309
1306
1301
1297
1293
1291
1293
1296
1298
1298
1296
1294
1290
1287
1285
1286
1287
1289
1292
1293
1293
1291
1287
1284
1284
1284
1288
1291
1293
1294
1293
1289
1286
1284
1283
1285
1287
1291
1293
1294
1293
1291
1289
1287
1285
1285
1287
1291
1294
1296
1295
1293
1291
1287
1285
1285
1288
1292
1294
1295
1293
1291
1289
1287
1287
1289
1292
1295
1296
1296
1294
1291
1288
1286
1287
1288
1289
1293
1295
1294
1293
1291
1287
1286
1285
1287
1289
1292
1295
1295
1293
1291
1288
1286
1286
1287
1289
1292
1294
1294
1293
1290
1288
1285
1284
1286
1289
1292
1294
1293
1292
1288
1286
1285
1285
1287
1290
1292
1293
1294
1292
1288
1286
1284
1284
1286
1289
1293
1294
1294
1291
1288
1286
1284
1285
1287
1289
1292
1293
1292
1291
1288
1286
1285
1285
1286
1289
1292
1294
1293
1292
1289
1287
1285
1285
1287
1290
1293
1293
1293
1291
1288
1286
1285
1285
1287
1290
1292
1293
1293
1291
1288
1286
1285
1286
1288
1290
1293
1295
1294
1291
1288
1286
1285
1285
1288
1290
1293
1294
1293
1291
1289
1286
1285
1286
1290
1295
1298
1300
1299
1298
1297
1297
1299
1301
1303
1305
1305
1305
1304
1304
1304
1306
1307
1307
1310
1314
1316
1315
1312
1309
1307
1306
1305
1305
1305
1305
1306
1306
1303
1299
1295
1293
1292
1291
1292
1294
1295
1295
1293
1291
1288
1285
1284
1285
1287
1291
1293
1293
1292
1290
1287
1285
1284
1285
1287
1290
1292
1293
1292
1289
1286
1284
1284
1286
1288
1291
1293
1294
1293
1291
1289
1287
1287
1289
1293
1296
1297
1297
1296
1291
1292
1306
1330
1363
1401
1439
1478
1514
1538
1551
1525
1477
1424
1375
1345
1339
1336
1328
1314
1291
1266
1247
1234
1228
1226
1229
1232
1235
1238
1239
1240
1246
1255
1266
1276
1285
1292
1298
1300
1301
1300
1299
1300
1302
1306
1309
1312
1312
1311
1309
1307
1305
1306
1308
1311
1314
1316
1317
1316
1313
1311
1309
1310
1312
1315
1319
1321
1321
1318
1316
1314
1313
1313
1315
1319
1323
1325
1325
1323
1321
1319
1318
1319
1321
1324
1328
1331
1331
1330
1328
1327
1326
1327
1329
1333
1336
1339
1340
1339
1338
1336
1336
1338
1341
1345
1349
1352
1353
1352
1351
1351
1351
1353
1357
1363
1368
1371
1373
1373
1372
1372
1373
1376
1381
1386
1390
1393
1394
1394
1393
1392
1392
1394
1397
1402
1405
1407
1407
1405
1402
1399
1397
1396
1397
1398
1397
1395
1391
1385
1379
1373
1368
1365
1363
1362
1360
1357
1352
1347
1341
1336
1332
1330
1330
1330
1330
1328
1326
1321
1317
1313
1311
1311
1312
1313
1314
1314
1312
1310
1306
1303
1303
1304
1306
1308
1309
1310
1308
1305
1303
1300
1300
1301
1303
1307
1309
1309
1308
1306
1303
1301
1301
1301
1304
1307
1309
1310
1309
1306
1304
1302
1301
1302
1306
1309
1311
1311
1310
1307
1304
1302
1301
1303
1306
1309
1311
1312
1309
1307
1305
1303
1302
1303
1306
1309
1311
1311
1310
1307
1304
1302
1302
1303
1306
1309
1311
1311
1309
1306
1303
1302
1301
1302
1306
1308
1310
1310
1308
1305
1303
1301
1301
1302
1305
1308
1309
1309
1307
1304
1301
1300
1300
1301
1305
1307
1309
1309
1308
1304
1301
1300
1300
1301
1304
1307
1308
1308
1307
1304
1301
1299
1300
1302
1304
1307
1308
1308
1306
1304
1301
1299
1299
1301
1304
1306
1308
1307
1306
1303
1301
1300
1300
1302
1305
1307
1308
1307
1305
1302
1300
1299
1299
1302
1304
1307
1308
1307
1305
1303
1300
1299
1299
1301
1304
1307
1308
1308
1306
1302
1300
1299
1300
1302
1304
1306
1308
1307
1305
1302
1300
1299
1300
1302
1305
1307
1307
1307
1305
1302
1300
1299
1299
1302
1306
1309
1309
1307
1305
1302
1300
1298
1299
1301
1305
1307
1308
1307
1304
1302
1300
1300
1301
1304
1307
1311
1313
1313
1312
1311
1311
1312
1316
1319
1320
1319
1318
1317
1317
1316
1318
1320
1321
1324
1329
1331
1330
1326
1322
1319
1319
1319
1319
1320
1320
1320
1319
1316
1311
1307
1306
1305
1305
1306
1308
1309
1308
1306
1303
1301
1299
1298
1298
1300
1303
1305
1306
1304
1301
1298
1297
1296
1297
1300
1303
1305
1305
1304
1301
1298
1297
1296
1298
1301
1303
1305
1306
1304
1302
1298
1297
1298
1301
1305
1308
1308
1308
1306
1302
1305
1321
1346
1380
1418
1457
1495
1529
1552
1561
1528
1479
1426
1379
1352
1347
1343
1334
1320
1296
1272
1254
1243
1238
1236
1238
1242
1244
1246
1247
1248
1255
1264
1275
1285
1294
1301
1304
1305
1304
1304
1304
1305
1309
1314
1317
1318
1318
1315
1313
1311
1310
1311
1313
1315
1318
1321
1320
1318
1315
1314
1313
1315
1318
1321
1323
1324
1325
1323
1320
1318
1317
1317
1320
1324
1327
1329
1328
1327
1324
1323
1322
1322
1325
1329
1332
1333
1333
1331
1329
1327
1327
1328
1330
1335
1338
1340
1342
1340
1338
1337
1337
1338
1341
1346
1350
1352
1353
1353
1351
1352
1352
1354
1358
1362
1367
1371
1373
1373
1372
1371
1373
1377
1382
1387
1390
1393
1394
1393
1393
1393
1392
1395
1398
1401
1404
1406
1404
1402
1400
1398
1396
1396
1397
1398
1397
1394
1391
1385
1378
1372
1367
1364
1362
1361
1358
1355
1351
1345
1339
1333
1329
1328
1328
1327
1327
1326
1322
1318
1314
1309
1306
1306
1307
1309
1311
1311
1308
1306
1303
1299
1298
1298
1300
1302
1304
1305
1303
1300
1298
1296
1295
1296
1297
1299
1302
1302
1299
1297
1294
1294
1294
1295
1297
1300
1303
1303
1301
1299
1294
1292
1293
1295
1299
1303
1305
1304
1302
1298
1295
1294
1294
1298
1301
1302
1304
1303
1300
1297
1295
1293
1294
1296
1297
1299
1301
1301
1299
1298
1295
1293
1292
1294
1297
1299
1300
1299
1297
1295
1292
1291
1291
1292
1296
1298
1300
1300
1297
1295
1292
1289
1289
1291
1293
1296
1296
1296
1294
1292
1290
1288
1289
1289
1293
1296
1298
1297
1294
1292
1290
1288
1288
1291
1294
1296
1295
1295
1293
1291
1288
1287
1288
1289
1292
1295
1297
1295
1292
1290
1287
1286
1287
1289
1291
1293
1294
1294
1292
1289
1287
1286
1287
1288
1291
1294
1296
1295
1293
1290
1286
1284
1284
1287
1291
1294
1294
1293
1291
1288
1286
1285
1285
1288
1291
1294
1295
1294
1292
1289
1286
1284
1285
1287
1290
1292
1292
1293
1292
1288
1286
1286
1285
1288
1290
1291
1293
1293
1290
1287
1285
1284
1284
1287
1291
1293
1294
1293
1290
1287
1287
1288
1290
1293
1296
1298
1299
1299
1298
1299
1300
1298
1299
1299
1301
1302
1305
1307
1308
1308
1306
1307
1310
1311
1312
1313
1311
1309
1307
1306
1303
1300
1300
1301
1302
1303
1301
1298
1296
1293
1290
1289
1290
1291
1294
1294
1294
1292
1290
1287
1285
1284
1286
1289
1292
1292
1293
1291
1288
1285
1284
1284
1285
1288
1291
1293
1294
1291
1288
1285
1284
1284
1287
1290
1293
1294
1293
1293
1291
1289
1287
1287
1290
1294
1296
1297
1296
1294
1303
1321
1349
1381
1418
1456
1493
1521
1539
1531
1490
1439
1390
1353
1341
1343
1340
1332
1317
1293
1273
1256
1243
1237
1235
1235
1237
1241
1246
1248
1248
1251
1258
1268
1276
1283
1291
1298
1302
1303
1302
1301
1301
1302
1304
1307
1311
1312
1312
1311
1309
1307
1306
1307
1310
1313
1316
1318
1318
1315
1313
1311
1309
1310
1313
1316
1320
1322
1320
1319
1317
1315
1315
1316
1319
1322
1325
1326
1326
1324
1322
1320
1320
1322
1325
1328
1331
1333
1332
1331
1329
1327
1327
1328
1331
1335
1338
1340
1341
1341
1339
1337
1337
1340
1344
1348
1351
1353
1354
1354
1353
1352
1353
1356
1360
1365
1370
1373
1374
1374
1373
1373
1374
1377
1381
1386
1390
1393
1393
1393
1392
1391
1391
1394
1397
1401
1404
1404
1403
1400
1397
1394
1392
1391
1391
1392
1391
1388
1383
1376
1371
1365
1360
1358
1357
1356
1355
1352
1348
1342
1336
1331
1328
1327
1327
1328
1328
1327
1324
1320
1315
1312
1310
1310
1312
1314
1316
1315
1313
1309
1306
1304
1303
1304
1306
1310
