471
469
467
465
465
463
464
464
463
463
461
460
459
458
457
457
458
459
460
458
456
456
455
456
456
454
455
456
458
457
456
456
459
460
459
458
457
453
452
460
479
509
543
581
622
660
689
709
707
665
607
545
494
474
468
462
455
440
418
401
386
373
368
369
372
377
385
391
399
411
422
433
441
448
454
458
464
466
468
469
472
471
472
474
474
474
477
478
478
478
479
479
478
479
480
481
483
484
484
484
484
484
484
486
487
487
488
488
489
490
490
490
492
493
494
494
497
497
498
499
500
501
501
501
502
505
505
508
510
512
513
512
515
517
519
521
524
525
527
529
530
533
535
539
542
544
548
550
552
554
555
556
558
560
561
564
566
567
568
568
568
568
567
568
569
568
568
567
564
562
560
557
554
550
546
544
541
539
533
529
525
521
515
513
509
506
504
501
496
492
490
487
485
482
480
480
480
476
473
472
472
471
470
471
470
471
471
469
470
469
468
467
467
467
467
469
469
470
470
469
469
468
469
469
469
469
470
471
471
471
470
469
470
470
471
471
472
472
472
470
469
470
470
468
471
468
470
471
471
470
469
469
468
468
468
469
468
468
468
468
466
466
465
465
466
467
466
466
466
465
463
464
463
464
464
464
464
464
464
463
462
462
463
463
463
462
462
463
463
462
461
461
461
462
460
462
462
460
460
460
459
458
458
461
462
462
460
461
459
460
461
459
459
459
460
460
461
460
461
460
459
459
459
459
458
459
461
461
460
458
458
458
458
458
458
459
460
460
459
459
458
459
460
462
466
471
475
476
478
479
480
479
479
479
479
478
477
478
479
479
484
487
489
492
492
492
489
486
484
485
486
482
481
480
478
477
474
469
466
466
464
462
463
462
459
457
455
456
456
455
454
453
452
452
454
454
455
454
453
453
455
453
452
452
453
454
455
454
454
454
453
453
453
454
453
454
457
458
457
457
456
453
449
450
462
487
520
557
595
636
672
699
720
705
651
590
525
481
467
461
455
443
422
401
386
373
365
364
369
372
377
385
390
401
414
427
437
445
452
457
460
464
466
469
470
470
473
474
473
475
475
475
477
476
477
479
480
482
481
481
481
480
482
484
485
485
486
488
488
487
487
488
488
489
490
492
494
494
494
495
495
495
497
498
500
502
502
502
502
504
506
505
507
508
511
513
514
515
518
519
520
522
525
527
529
530
534
539
540
541
545
546
548
551
554
557
559
561
562
563
564
565
565
566
567
569
569
570
570
567
567
567
567
566
563
562
559
555
551
548
543
540
537
532
529
526
522
518
513
509
506
502
499
495
493
490
488
486
483
480
479
476
473
472
472
471
470
470
468
468
468
465
465
466
467
469
468
467
467
467
466
467
467
468
470
471
470
469
469
468
469
469
468
469
471
469
470
470
469
468
467
469
469
468
467
469
471
469
469
469
468
466
466
467
467
468
469
468
466
466
466
465
466
465
466
466
465
463
464
464
463
463
462
462
464
464
464
464
463
461
461
461
461
460
460
462
462
462
461
460
460
460
459
458
458
459
458
459
460
459
458
457
456
457
458
457
457
455
457
458
457
455
457
459
457
457
458
457
455
455
455
454
454
456
458
457
457
457
456
456
455
456
456
456
457
457
456
455
456
456
455
454
455
456
457
457
456
455
455
453
453
453
453
454
455
454
455
455
454
454
454
455
455
455
455
454
454
454
453
454
455
456
457
461
463
465
469
471
472
473
474
474
474
474
475
474
473
472
475
478
480
483
484
485
485
486
486
483
479
480
479
476
475
475
474
471
469
466
462
461
459
460
459
458
457
455
452
452
451
450
450
451
451
451
451
451
451
450
450
448
447
448
448
448
450
452
452
450
449
447
447
447
449
450
451
451
452
452
452
453
451
448
448
446
455
476
504
539
575
614
652
682
701
699
657
603
542
493
475
472
467
457
441
418
401
386
372
368
368
369
374
380
386
393
404
415
425
433
439
446
452
456
459
462
464
465
466
468
468
469
469
470
471
471
472
473
474
474
474
475
475
475
477
477
478
479
479
479
479
479
480
481
481
483
485
484
486
488
488
487
487
490
491
492
493
494
494
495
496
496
498
500
502
502
504
507
508
508
510
511
514
516
517
521
522
526
528
529
530
532
535
538
542
545
548
550
551
552
552
553
555
557
559
560
560
563
563
563
563
564
562
561
560
558
557
556
553
550
547
543
539
537
532
527
525
521
518
514
509
504
500
497
495
491
488
486
482
479
476
474
471
470
469
468
468
465
463
462
462
460
459
458
458
458
457
456
456
456
456
456
456
457
457
458
459
460
461
461
460
459
460
460
459
460
460
461
461
461
461
461
461
464
464
463
464
465
464
463
463
464
465
464
464
465
464
465
463
463
462
462
463
464
463
464
465
464
462
460
460
460
461
460
460
462
463
461
462
462
461
459
458
459
460
459
459
459
459
459
458
457
458
457
458
459
459
459
460
458
456
457
456
455
456
457
458
456
458
456
454
456
457
460
458
457
457
457
456
455
457
457
457
456
457
457
458
457
456
456
454
456
457
456
457
457
457
456
456
456
456
455
455
455
455
456
457
457
456
456
456
458
458
456
457
457
457
457
457
457
456
456
456
458
458
457
457
456
457
458
458
458
456
456
457
460
461
459
459
458
457
457
459
460
461
464
465
466
470
473
473
475
478
478
477
477
478
477
476
475
476
480
485
489
491
492
492
490
489
485
483
484
484
484
482
482
481
479
477
475
470
469
469
469
467
465
463
461
460
460
459
459
461
459
457
460
460
460
459
458
457
456
458
459
460
460
460
460
458
459
459
460
460
460
460
460
461
463
461
461
463
464
464
463
462
460
459
469
491
521
555
592
630
667
694
712
704
661
607
548
505
493
491
485
476
456
436
417
403
393
386
384
387
391
399
403
408
417
428
438
447
455
464
469
474
476
478
480
480
481
483
484
484
486
487
486
488
489
489
490
491
492
492
494
495
495
495
496
497
497
498
499
498
499
500
501
501
500
502
504
505
506
507
508
510
511
512
511
511
513
514
515
517
518
520
521
523
524
524
527
529
531
532
535
540
542
543
544
545
548
551
553
556
560
563
566
568
571
572
574
576
578
580
583
586
588
587
588
588
588
588
588
588
589
589
588
586
584
581
578
576
573
569
566
563
559
555
550
547
542
539
535
532
529
526
523
519
515
512
509
506
504
503
500
498
498
498
495
493
492
491
488
488
489
488
488
488
488
488
487
486
487
486
486
487
487
489
487
486
487
487
487
487
489
491
491
490
491
491
489
491
492
490
492
493
492
494
494
494
493
492
493
493
495
495
496
496
496
494
494
493
492
492
494
494
494
496
496
493
493
492
493
493
493
492
493
494
491
492
491
491
490
491
494
492
491
493
493
491
490
491
491
492
493
491
489
492
492
491
490
490
489
489
491
491
492
492
492
493
493
492
491
491
491
492
491
490
490
490
491
490
492
491
492
492
493
493
493
492
493
490
491
492
493
493
495
494
493
492
493
493
493
494
493
495
495
494
494
494
492
492
494
494
494
496
496
495
495
496
496
495
495
497
498
497
495
498
496
495
497
495
495
495
497
499
498
498
496
496
496
496
496
497
499
499
499
499
498
497
497
497
497
499
501
502
504
507
509
513
515
517
517
517
518
517
518
517
517
516
519
521
523
528
530
530
530
529
527
525
521
522
523
522
521
521
519
518
515
513
508
506
507
506
505
505
503
501
499
498
497
498
497
498
499
498
500
499
496
496
495
496
496
496
496
497
498
499
499
497
496
497
496
497
499
500
500
500
500
500
500
500
503
501
501
500
497
505
526
554
591
628
668
709
742
766
766
722
665
599
544
521
516
512
502
486
463
443
428
416
410
411
417
424
431
437
444
454
467
477
485
495
504
507
512
514
515
517
518
517
519
522
524
524
526
527
527
528
527
526
526
528
530
532
532
531
531
532
532
532
533
534
535
536
537
539
538
538
539
539
539
541
541
543
543
545
547
548
547
549
549
550
551
552
554
557
558
559
561
561
563
564
567
570
573
575
577
578
579
583
586
590
593
596
599
602
604
607
611
612
613
616
619
621
622
624
626
626
625
626
628
628
628
628
628
627
624
622
618
616
612
609
607
603
600
596
590
585
582
576
572
568
564
562
559
555
550
545
542
539
537
536
534
531
529
528
525
522
521
520
519
518
517
516
516
516
513
512
513
512
511
512
514
515
515
514
514
514
514
514
515
515
516
515
516
517
517
516
516
516
517
518
519
520
520
520
518
518
519
518
519
519
518
519
521
521
519
518
517
518
519
518
519
519
518
517
516
516
516
515
514
516
518
518
518
517
517
516
515
514
514
513
514
515
514
513
513
513
513
513
513
514
514
514
514
513
512
512
512
511
510
510
511
512
512
515
514
511
509
509
509
507
506
509
510
509
509
508
508
509
509
509
510
510
509
509
506
506
506
505
507
507
508
509
509
508
507
506
506
506
507
507
507
506
507
507
507
507
507
506
506
505
506
507
508
507
505
505
505
505
505
504
505
506
507
507
506
506
506
506
504
503
505
506
505
505
504
503
503
503
504
506
505
505
506
507
508
507
506
505
503
504
505
505
505
506
505
505
506
507
509
511
514
518
522
524
524
524
522
523
523
524
524
523
525
527
529
531
534
536
535
537
537
536
533
531
531
530
530
528
526
525
522
520
518
516
514
515
515
514
512
509
508
506
505
506
505
506
504
503
503
503
504
505
505
503
502
502
503
501
499
501
502
503
503
504
503
502
503
503
503
503
506
507
506
506
507
507
504
503
502
500
504
519
543
575
610
649
687
723
750
764
743
695
639
580
544
533
529
520
508
488
468
450
437
428
423
424
427
433
437
440
449
461
471
482
491
498
503
506
508
511
514
516
520
521
520
521
523
522
522
523
524
524
527
528
529
527
526
528
527
530
531
530
531
531
531
531
533
534
536
538
538
537
539
538
539
540
538
539
542
545
547
547
546
547
547
547
548
550
552
555
556
557
559
561
562
565
567
569
571
574
576
578
583
583
585
588
592
594
596
601
606
608
613
614
615
616
620
622
623
624
626
627
628
629
630
629
629
627
625
625
623
621
617
613
609
604
600
596
592
587
584
580
575
570
563
557
553
551
548
543
540
537
534
530
526
525
523
521
519
518
517
516
515
510
508
508
508
507
508
507
504
504
503
503
503
502
502
502
502
503
504
504
503
502
503
505
503
501
501
502
503
504
504
505
505
504
505
505
506
505
507
508
507
508
506
506
506
507
508
508
509
508
508
508
506
505
505
506
506
508
508
508
510
508
504
504
506
505
505
505
506
504
504
503
504
503
505
504
504
505
504
502
503
504
502
501
501
502
502
502
502
503
503
501
502
501
500
499
498
498
499
499
501
499
498
497
495
496
497
499
499
499
499
498
497
497
498
498
497
499
499
501
501
497
495
496
498
498
499
498
498
499
498
498
497
496
494
496
497
498
497
498
497
497
496
496
496
495
496
497
498
498
498
497
495
495
495
496
497
497
497
496
497
498
497
495
493
494
496
496
496
495
495
495
495
494
492
494
495
496
496
496
497
496
494
494
496
496
498
503
505
506
508
511
512
513
515
515
513
512
511
511
509
509
508
510
515
518
519
520
522
523
520
518
516
514
513
514
514
513
512
509
506
505
504
503
501
503
500
501
501
498
496
495
493
492
492
492
493
494
494
493
491
490
492
492
491
491
490
491
491
491
492
490
491
491
490
491
492
493
493
493
492
491
491
492
494
496
497
495
494
491
491
507
531
564
599
637
677
714
741
758
740
690
632
570
529
517
510
505
494
474
452
432
417
405
404
407
413
419
427
430
437
449
461
471
478
486
494
499
502
504
507
508
507
508
510
512
512
515
515
516
515
515
515
517
519
518
520
522
521
522
520
520
522
523
524
524
523
526
526
527
527
527
528
529
529
530
530
533
534
534
535
536
538
537
540
542
542
545
546
545
545
547
550
550
553
556
559
562
565
568
568
571
573
575
579
582
586
590
593
596
598
601
604
605
608
610
613
617
617
619
621
622
623
622
623
624
624
624
623
621
618
615
613
609
604
599
595
593
589
584
576
571
569
564
558
554
551
548
542
536
536
532
528
524
522
520
520
517
516
513
511
509
506
506
506
505
505
503
504
503
501
499
499
499
499
499
500
501
501
501
500
499
500
499
500
499
500
503
502
500
503
501
500
500
503
504
501
503
504
503
502
504
504
504
501
503
504
504
505
504
504
504
502
503
504
504
504
503
502
503
502
502
501
501
501
502
502
502
502
502
500
501
500
501
501
500
501
501
500
499
499
501
499
498
498
498
497
499
499
499
498
497
497
496
496
497
498
499
498
498
495
495
495
493
493
493
495
494
496
496
496
493
494
495
493
494
494
493
494
492
492
493
494
494
494
494
493
492
492
493
493
494
491
491
492
492
492
494
492
492
492
490
491
493
492
493
494
494
493
493
493
491
492
489
490
492
493
493
495
494
493
490
491
491
492
491
493
493
492
492
492
491
490
489
490
492
491
491
492
491
490
490
490
489
491
492
492
492
492
491
491
496
497
501
502
507
513
515
515
513
512
510
508
508
510
510
508
509
513
518
516
513
514
518
519
520
520
518
516
512
512
512
511
509
507
505
503
502
500
499
499
497
496
492
491
489
490
493
492
488
488
487
487
487
485
486
487
488
486
485
485
485
485
486
486
487
488
487
487
487
487
486
487
488
488
489
489
491
490
489
490
490
488
487
486
487
501
526
558
593
632
672
714
748
768
751
703
640
573
526
507
500
494
484
462
439
423
410
398
394
399
403
410
419
424
432
447
458
470
478
486
490
495
498
499
500
502
504
504
504
505
508
508
508
510
510
510
510
510
512
513
513
513
513
516
516
515
516
516
518
516
516
517
518
519
521
523
521
522
522
521
523
525
526
527
529
530
531
533
534
534
533
534
534
537
542
544
545
546
547
548
551
554
557
559
561
565
568
570
570
573
579
584
586
590
593
596
598
600
601
605
608
610
612
615
617
618
618
619
620
622
622
620
618
616
613
610
608
604
599
594
590
586
580
577
573
567
562
558
552
546
543
538
532
529
526
522
520
517
514
512
510
506
503
503
501
501
499
497
496
494
493
493
492
491
492
493
493
492
491
490
490
488
489
491
492
492
491
490
491
491
491
490
490
493
493
493
494
493
492
492
491
494
496
498
499
499
497
496
495
495
496
495
496
498
499
499
498
497
497
498
497
496
497
497
498
498
498
498
497
495
496
496
497
496
497
495
495
494
494
494
492
492
492
492
492
492
492
492
492
491
492
493
493
492
492
490
490
490
490
489
489
489
489
489
491
489
489
489
489
487
488
487
486
487
487
489
488
489
488
488
488
486
486
487
489
490
490
488
486
487
487
485
486
487
487
488
488
488
485
484
484
485
487
487
485
485
486
486
486
486
487
486
486
485
485
486
485
484
484
483
482
482
483
485
485
484
483
482
481
483
482
481
484
485
485
487
485
483
483
482
483
482
482
484
484
484
484
483
482
485
484
483
482
483
486
488
489
493
496
498
501
503
503
503
502
499
495
493
493
493
495
499
503
504
505
506
508
508
507
506
503
502
502
500
500
499
498
495
495
493
490
489
490
490
489
487
486
484
481
480
478
478
479
479
478
478
477
475
475
477
477
475
475
476
477
478
476
475
474
474
475
475
476
477
477
477
475
476
478
479
478
477
479
480
480
480
477
473
473
482
504
533
570
607
644
681
710
733
731
693
642
582
532
511
506
500
491
475
452
432
415
404
399
396
397
402
408
412
419
430
439
450
460
468
473
478
481
484
487
488
489
490
494
494
495
496
496
496
498
498
499
501
502
501
501
502
502
503
503
505
506
506
506
506
507
506
506
508
509
509
511
513
515
516
516
516
515
515
516
518
520
521
523
525
525
525
524
525
527
531
533
535
538
542
544
545
546
549
550
553
556
560
563
567
570
573
576
580
582
586
589
592
595
599
602
603
604
605
607
609
611
612
613
613
613
612
609
608
606
602
600
597
593
588
582
577
572
566
560
554
551
545
542
540
536
530
525
520
516
512
510
508
506
506
504
499
496
494
493
493
490
489
488
487
486
485
485
483
482
481
482
483
482
483
483
481
479
480
479
480
480
481
480
481
482
482
481
480
480
480
481
482
482
482
483
484
482
482
481
481
483
482
484
484
482
482
482
483
484
483
483
482
484
486
487
485
484
484
484
485
485
486
485
484
485
484
484
483
483
484
484
484
484
485
483
484
484
484
483
483
483
482
483
483
484
483
480
480
481
481
480
481
480
480
481
482
482
479
477
476
478
477
480
480
481
481
479
479
478
478
479
479
479
481
478
478
479
477
477
478
477
479
478
479
481
480
477
477
477
476
477
477
477
477
478
478
477
477
477
476
478
478
479
479
478
477
477
476
474
476
476
477
477
477
478
476
477
475
474
474
475
476
476
476
477
476
474
474
474
474
474
476
475
476
476
476
474
475
475
474
475
475
477
477
477
475
475
476
475
476
478
480
482
485
490
492
494
495
496
495
494
494
493
492
491
490
490
493
497
499
498
498
501
502
502
501
499
495
494
494
494
494
493
491
487
486
485
483
483
482
481
480
480
478
473
473
471
471
472
473
473
473
473
472
471
472
470
470
470
470
470
472
471
472
472
471
472
472
472
471
471
472
472
474
473
473
473
473
473
475
477
476
475
474
471
475
489
513
546
584
624
665
703
732
746
726
676
615
550
507
496
491
483
470
449
428
408
393
386
384
387
394
401
407
412
421
435
448
456
465
473
479
483
486
489
491
491
491
492
494
496
496
497
500
498
499
499
501
502
501
501
503
505
505
505
504
506
506
507
507
507
509
511
513
511
511
512
512
511
513
515
514
516
518
520
521
520
522
522
524
526
528
529
530
531
533
533
534
537
540
544
545
547
549
551
555
556
558
561
565
569
573
577
581
584
586
589
593
596
599
602
604
607
608
609
611
612
612
614
616
616
614
613
612
610
606
604
601
595
590
586
580
576
574
567
560
554
551
547
543
539
534
530
525
521
517
514
511
508
505
504
501
498
497
496
494
491
491
490
488
486
487
485
483
484
484
482
481
482
483
481
481
481
481
480
480
480
480
481
482
481
482
484
484
484
481
480
481
482
483
484
484
485
482
482
483
483
484
484
484
485
484
485
485
484
484
483
483
483
485
485
485
485
484
484
483
482
483
483
484
483
486
485
485
483
481
482
481
480
481
482
480
482
481
481
480
480
481
481
479
481
482
480
479
479
478
478
477
478
479
480
481
478
477
476
478
477
476
476
476
475
479
479
477
477
477
476
477
479
476
476
477
478
475
475
475
475
476
476
477
476
476
478
476
474
473
474
475
474
476
475
475
476
475
476
473
475
476
474
476
475
475
476
476
475
475
475
475
475
476
476
476
476
475
475
475
474
474
476
476
478
479
476
475
474
473
473
473
474
475
476
476
474
474
475
475
475
476
476
475
475
476
476
474
473
474
474
473
474
475
476
476
475
475
475
474
474
474
476
478
480
480
483
484
486
489
492
494
494
497
497
495
493
492
491
492
491
490
493
497
499
500
500
500
502
501
500
499
497
498
497
496
494
492
490
489
488
485
485
484
484
483
482
479
476
474
475
474
473
473
472
472
473
472
471
471
471
473
473
475
473
473
473
472
472
472
473
472
473
471
471
471
471
469
470
471
471
472
474
475
477
478
476
475
473
470
472
485
507
539
576
614
652
690
722
742
732
686
629
564
518
501
496
489
479
462
439
420
406
396
390
392
395
399
405
409
416
428
440
450
459
468
474
479
482
484
486
487
489
490
491
492
492
493
493
493
494
495
495
497
500
499
499
499
498
499
500
500
502
503
504
504
503
504
504
505
507
508
510
511
511
512
512
512
511
511
514
516
517
520
522
522
521
523
525
527
527
527
530
532
534
537
538
539
541
543
547
550
555
558
561
564
566
569
572
576
578
583
587
591
594
596
598
599
602
604
606
608
609
610
611
612
611
610
609
607
605
603
600
598
593
588
582
575
570
566
560
555
551
548
542
536
531
527
522
518
514
511
508
505
503
500
498
496
493
491
489
488
487
484
483
482
481
480
480
479
479
478
479
479
479
478
479
477
476
473
473
474
475
476
478
478
477
478
478
477
477
478
479
479
478
478
477
477
478
479
480
480
481
481
482
480
481
482
481
480
481
483
482
482
483
481
482
484
482
482
482
481
481
482
480
480
480
480
480
479
480
480
480
482
482
480
480
480
479
478
477
478
478
478
480
480
480
477
476
475
474
475
474
475
476
476
477
477
476
475
474
473
474
474
474
475
473
473
474
473
473
473
474
475
475
474
472
471
471
472
473
473
473
474
474
473
473
472
471
471
470
471
473
473
473
472
470
471
472
470
469
470
471
472
471
471
471
471
471
470
469
469
470
471
470
470
471
470
470
468
469
469
470
471
471
470
469
469
468
468
470
470
469
470
469
470
471
470
469
468
468
468
469
470
471
470
471
471
470
469
469
470
470
472
471
474
476
478
481
483
485
486
488
490
489
489
486
485
483
483
483
484
487
491
494
494
494
494
494
495
495
495
492
491
492
491
488
486
485
483
482
482
481
481
481
477
474
474
473
472
471
468
467
470
470
468
468
467
467
466
464
467
469
469
469
469
467
468
468
467
466
466
466
467
467
467
467
467
467
467
468
469
470
472
472
473
473
471
469
467
467
475
494
523
558
594
631
669
698
721
725
693
643
588
534
507
500
495
487
471
450
430
415
402
393
391
392
395
401
407
411
421
432
443
453
460
467
474
477
479
483
485
487
488
488
488
489
488
491
492
493
495
496
497
496
497
497
496
496
497
499
502
502
501
501
501
502
503
504
505
507
507
509
510
512
512
512
514
515
513
514
515
519
520
520
520
521
521
523
527
529
530
532
534
535
535
536
539
542
546
550
554
558
560
563
565
567
572
576
582
584
587
591
594
598
599
601
603
606
608
610
612
614
614
615
616
614
612
612
611
609
607
604
599
595
591
584
579
575
569
563
560
556
549
543
539
534
530
527
523
519
512
510
507
505
501
499
497
495
494
493
491
490
487
486
486
484
482
481
483
481
479
480
481
480
479
480
478
477
478
478
479
479
477
476
478
478
479
480
480
480
480
481
480
480
480
480
480
480
482
481
481
481
483
483
483
481
481
482
481
481
482
483
482
481
480
481
483
480
480
481
482
482
481
481
480
480
481
482
482
482
482
481
481
480
480
479
477
479
480
480
479
479
480
478
477
476
478
478
480
479
478
478
478
477
476
477
478
477
476
477
479
477
477
478
478
475
473
473
476
477
476
477
476
475
475
474
473
472
473
475
477
476
476
477
474
473
472
472
472
472
474
475
474
475
474
474
473
474
474
472
472
474
474
472
473
473
471
471
473
474
474
474
473
473
472
473
472
473
471
472
472
471
471
471
472
472
472
471
472
473
473
472
472
472
471
472
472
472
472
473
472
474
472
471
471
472
471
471
472
473
474
474
476
477
480
481
487
489
489
491
492
493
490
489
486
486
485
485
487
489
493
495
495
496
499
498
495
495
493
491
491
491
490
489
488
486
483
483
481
480
480
479
477
474
473
471
469
470
470
471
471
469
469
469
468
467
467
467
469
470
470
469
468
467
468
469
468
467
467
467
467
467
468
469
469
468
467
469
470
470
472
474
473
471
471
468
464
470
490
517
549
586
625
662
699
726
737
713
666
608
547
511
501
494
486
473
451
431
413
400
390
387
389
394
400
402
407
417
430
441
451
460
466
472
476
479
482
484
486
489
489
489
490
491
491
491
493
494
495
497
497
498
498
500
499
499
499
501
501
500
502
504
504
504
503
504
506
507
508
509
511
510
511
511
511
513
514
516
516
519
520
522
522
521
522
525
527
529
531
534
537
538
539
540
543
547
549
551
556
559
562
565
569
571
574
577
582
586
590
594
596
598
602
603
606
609
610
612
613
616
617
615
615
615
612
612
610
607
603
603
598
591
587
582
576
572
566
561
554
549
545
541
536
530
525
521
519
515
512
510
508
503
500
500
497
494
494
493
492
491
490
489
487
485
485
484
482
483
484
484
484
483
483
483
482
481
481
481
482
482
482
481
481
482
483
482
483
483
482
484
484
484
483
482
483
483
485
485
486
483
485
486
484
485
486
486
485
484
485
486
486
486
486
486
485
485
484
486
487
487
485
483
483
485
484
483
484
484
486
482
484
486
485
483
483
483
483
483
483
483
482
481
482
481
481
481
481
483
484
485
483
482
482
481
480
481
482
481
482
480
481
481
481
482
481
481
480
479
480
480
481
480
480
480
479
479
478
479
480
479
480
479
481
478
479
480
478
477
479
479
481
480
478
478
478
476
478
480
479
479
480
479
479
478
477
478
477
478
480
479
479
479
478
479
479
477
478
476
475
478
479
479
479
478
477
478
479
478
478
479
480
480
479
478
477
477
478
478
480
480
479
476
478
476
477
476
477
478
480
478
479
481
482
485
490
494
497
498
498
499
498
494
493
493
492
493
494
494
497
499
499
498
499
500
501
501
499
499
498
497
493
493
493
491
490
488
487
484
486
486
483
480
480
478
477
475
473
474
473
474
473
473
471
472
473
471
471
471
473
472
471
472
471
469
471
471
472
472
472
470
472
472
470
470
472
473
471
472
473
475
476
477
475
473
473
472
471
488
514
546
582
620
664
704
734
752
737
685
624
557
511
493
490
484
470
447
424
406
391
384
383
387
393
400
404
409
422
434
446
455
463
470
476
480
483
487
488
489
491
493
493
492
493
492
494
496
496
496
499
500
500
500
501
502
500
502
505
506
508
507
507
507
507
507
507
510
510
509
511
511
511
513
513
515
515
515
516
519
519
521
519
523
524
525
526
528
530
532
535
536
538
539
540
544
546
548
552
556
560
561
565
568
570
574
577
582
587
590
592
596
598
600
606
607
608
611
614
616
618
620
618
616
616
616
614
613
612
608
604
599
594
589
584
578
574
569
564
560
555
548
543
538
535
529
523
520
516
514
511
508
504
501
500
496
495
493
491
491
491
489
488
489
487
484
481
480
481
482
482
480
481
482
480
479
478
479
479
479
478
479
479
479
479
480
480
481
481
483
481
481
481
481
481
480
481
482
480
480
481
481
481
481
479
480
480
480
480
481
480
482
480
478
479
480
482
480
480
478
477
478
477
478
479
479
479
478
478
479
478
478
476
476
477
477
476
477
477
478
478
477
475
474
475
476
476
476
474
472
474
473
474
473
473
473
474
473
475
474
472
473
472
472
471
471
473
472
473
474
472
472
472
471
471
471
472
473
475
474
472
472
472
471
470
469
469
470
470
471
468
468
468
469
471
471
470
469
469
469
470
469
470
470
469
468
469
469
468
471
469
466
466
469
470
471
470
470
471
470
469
468
469
469
470
469
468
470
470
471
471
470
470
470
469
470
471
472
473
471
471
471
469
469
470
470
470
472
472
471
471
471
473
473
471
471
472
474
475
478
482
485
488
490
491
492
492
493
491
491
490
490
487
486
489
494
497
496
496
497
500
500
500
500
496
494
493
493
492
492
490
487
486
484
483
481
480
479
480
479
477
474
473
472
471
470
472
473
473
472
470
468
470
469
468
470
470
472
471
472
471
469
467
467
468
468
468
469
469
469
471
472
470
469
469
471
472
473
474
475
474
472
468
471
486
510
541
575
615
655
690
718
734
718
673
618
558
518
506
501
495
484
464
443
425
409
397
392
392
396
400
405
408
415
426
437
447
456
463
469
474
478
479
481
484
484
485
488
488
489
491
490
489
490
491
493
494
496
498
498
498
495
495
497
497
498
500
501
501
501
502
503
504
506
506
507
507
508
510
511
511
513
514
513
514
516
519
519
519
521
523
524
524
526
529
531
535
537
538
540
543
546
547
549
553
555
558
561
566
570
573
577
581
585
589
592
597
600
602
603
606
609
611
613
615
618
620
618
618
619
617
612
610
607
606
604
601
597
591
586
580
573
565
560
556
552
547
541
536
533
528
523
519
514
510
508
506
504
501
499
495
495
492
489
488
487
485
484
484
483
481
479
479
480
478
478
479
480
482
481
478
475
476
477
478
479
478
478
477
476
477
479
479
476
474
476
477
479
480
480
481
479
478
476
476
478
481
479
480
481
480
481
482
481
480
479
482
482
482
482
481
480
481
479
478
479
480
481
480
480
481
480
481
480
479
478
478
478
479
480
480
477
475
476
476
478
479
480
478
478
477
475
475
476
476
477
478
478
476
474
475
475
475
474
473
473
474
475
475
475
475
474
473
473
473
472
473
473
473
471
471
473
471
472
472
472
471
471
472
472
472
471
470
471
471
471
473
473
475
474
472
471
471
472
471
472
472
474
473
471
469
469
468
470
470
470
471
472
473
472
470
471
469
468
469
469
471
472
471
471
468
469
470
470
469
469
469
471
471
470
469
469
468
470
470
471
471
471
471
471
472
474
478
480
482
486
489
492
492
490
488
485
484
484
484
483
487
490
492
493
493
492
492
496
496
494
491
491
489
488
488
487
485
482
483
482
481
479
477
477
476
475
472
470
469
468
465
466
468
468
468
469
469
467
465
466
468
467
468
467
466
466
465
463
463
466
468
468
468
467
466
467
467
468
467
467
469
470
471
471
472
472
470
468
466
469
482
505
535
571
608
648
686
715
735
726
681
627
566
519
502
496
488
479
459
436
416
402
390
385
386
389
394
402
406
412
423
435
447
456
463
468
474
479
481
482
484
486
486
487
487
487
488
490
492
493
494
494
494
494
494
494
495
496
498
498
499
500
501
501
501
502
501
500
503
506
507
506
507
507
507
508
509
510
512
513
516
517
517
518
518
519
521
523
525
527
527
531
532
533
537
539
541
544
548
551
554
557
560
563
566
570
572
577
581
586
591
593
596
598
600
603
606
609
612
615
616
618
618
618
618
617
616
615
614
613
609
604
598
594
589
583
579
573
567
562
557
552
546
540
536
532
526
524
520
516
513
510
506
502
500
499
497
495
494
492
490
489
488
486
486
484
483
483
483
483
484
483
482
482
481
483
480
479
480
481
481
482
483
481
481
481
481
482
483
482
482
482
481
481
480
481
483
484
484
486
486
486
486
485
484
484
485
485
484
483
485
485
483
483
484
483
484
483
485
486
486
485
485
484
482
482
483
483
484
484
485
484
484
483
481
481
482
483
482
483
483
481
479
482
481
479
480
481
480
481
482
482
482
479
479
479
477
477
481
481
480
478
478
478
477
479
479
479
479
478
476
477
478
477
477
478
476
476
476
479
477
477
477
476
474
476
474
476
476
476
477
476
476
473
474
475
475
474
477
476
476
475
476
474
474
476
475
474
476
477
475
477
476
475
476
476
475
474
475
475
475
475
475
475
475
474
473
475
475
475
475
474
475
475
472
472
473
473
473
474
474
476
474
472
472
472
473
474
475
475
476
479
480
482
487
491
491
494
495
495
495
492
489
490
490
490
489
491
496
498
498
497
498
499
498
499
497
496
495
495
496
494
491
487
486
484
482
482
480
481
480
479
477
474
472
472
471
471
472
471
470
470
468
468
467
469
467
468
470
469
469
467
468
469
468
467
468
469
470
470
469
469
469
468
466
468
470
470
471
471
472
473
472
469
469
466
467
482
506
537
574
615
658
699
731
750
735
683
622
555
508
490
483
477
465
442
418
399
387
379
376
381
387
392
398
404
415
427
439
449
459
466
471
475
476
477
479
482
484
486
486
484
485
485
485
487
489
490
491
492
492
492
493
493
494
494
493
494
496
495
496
496
496
497
498
499
499
501
502
504
503
504
503
504
506
507
509
511
513
513
514
513
515
517
518
519
521
524
527
527
528
530
532
535
539
542
543
548
551
553
555
561
561
567
572
575
581
583
585
590
593
596
600
603
607
611
612
613
615
616
615
616
617
615
613
611
607
604
601
596
591
584
580
575
569
564
558
552
547
542
536
530
526
521
516
513
510
508
504
502
499
495
492
488
486
485
484
484
483
482
480
479
477
476
476
478
478
478
476
474
472
472
472
472
473
474
475
476
475
474
473
472
472
471
472
471
470
473
477
477
476
475
474
476
476
475
477
478
479
478
478
478
476
476
477
478
478
479
480
477
477
478
477
476
476
476
475
475
477
479
479
478
476
475
474
473
473
472
473
474
474
475
473
473
473
473
474
473
472
473
472
471
470
469
469
469
470
471
473
472
471
469
468
468
469
470
469
469
471
470
469
467
467
467
469
472
471
471
469
469
470
470
468
469
471
470
470
471
470
468
470
469
468
468
468
468
468
471
470
470
469
467
467
469
471
471
469
468
468
467
466
466
466
467
466
467
468
470
468
468
468
468
468
467
468
468
466
466
468
468
466
467
466
465
466
467
468
468
467
469
467
466
466
466
466
466
467
467
466
465
464
464
465
466
467
468
468
469
470
472
473
475
480
483
485
486
485
487
486
483
482
481
481
480
480
484
489
490
490
490
491
493
492
492
490
488
486
486
486
485
485
482
478
478
477
476
475
475
476
473
471
469
467
464
464
467
467
466
467
466
463
462
461
462
463
463
465
465
466
465
463
462
463
464
463
465
466
465
464
462
462
462
463
466
466
467
467
469
470
471
468
467
464
463
473
492
518
550
587
624
662
694
719
728
699
651
594
539
512
506
499
490
476
452
433
415
403
393
389
391
394
400
405
408
415
425
437
446
455
462
467
472
475
479
482
485
485
484
484
486
488
487
487
486
487
490
492
493
493
493
493
491
493
494
495
497
498
499
499
500
501
501
501
501
502
505
505
507
507
507
507
509
509
510
513
514
516
518
519
518
520
522
522
524
527
528
529
532
534
536
540
541
541
544
547
552
556
560
564
567
569
574
579
584
586
591
594
598
601
602
603
607
610
613
615
617
617
620
621
620
618
614
614
615
610
604
601
597
592
586
580
576
571
565
558
554
548
542
537
530
525
521
519
514
509
506
503
501
498
495
494
492
490
487
484
483
481
482
484
482
481
478
477
478
478
477
477
476
476
475
474
474
475
475
475
476
474
474
474
474
473
474
475
474
474
476
476
476
476
475
473
473
473
472
476
478
479
478
477
475
476
476
473
473
476
476
475
477
477
476
476
475
474
475
476
477
477
478
476
476
476
475
474
474
474
475
476
475
474
474
474
474
473
472
472
475
476
473
474
473
472
472
472
472
472
473
473
473
473
470
469
471
470
469
470
471
470
470
470
469
471
470
468
468
468
469
469
469
470
470
470
469
469
469
470
469
470
472
470
468
467
467
467
467
467
466
467
469
470
469
468
467
467
466
468
469
469
468
468
467
467
467
467
468
467
468
468
468
466
466
467
466
465
466
467
467
469
468
467
467
467
467
468
469
468
467
468
468
467
465
466
465
467
470
473
476
478
480
481
483
485
486
486
485
483
481
480
482
483
485
489
492
494
492
493
493
491
488
486
484
485
487
487
485
484
482
481
479
476
475
475
474
471
470
470
468
466
464
464
463
464
465
465
463
463
465
465
463
460
461
462
463
462
463
465
466
465
463
463
463
461
460
462
463
464
464
464
464
464
465
466
466
468
467
466
465
464
461
472
494
525
560
597
638
678
710
733
731
692
638
574
520
499
491
484
476
461
438
417
399
386
378
380
386
390
395
399
405
415
427
438
447
455
463
469
473
476
478
478
481
480
481
482
483
484
486
486
486
486
487
488
489
489
490
491
492
493
493
493
493
493
495
496
496
496
498
499
499
500
501
501
501
502
505
505
506
507
507
508
510
510
510
511
514
517
519
520
521
523
524
526
527
531
535
537
538
541
542
546
548
553
557
560
564
569
572
576
580
583
586
589
592
597
600
603
606
608
609
610
612
614
614
615
615
615
613
609
606
603
599
595
590
585
580
575
570
563
557
551
545
541
536
531
526
522
519
515
510
506
502
499
496
495
493
494
490
488
486
485
482
481
481
481
481
480
478
479
478
477
476
476
475
476
475
475
476
477
475
475
474
474
475
475
476
477
477
475
475
477
477
476
476
476
477
478
479
476
475
477
477
476
478
479
477
479
479
478
478
477
477
476
478
477
479
478
479
479
477
476
476
476
477
477
478
478
477
477
477
475
475
477
476
477
478
476
476
476
475
475
475
474
475
476
477
478
477
476
476
474
474
475
474
476
476
476
475
475
474
475
475
474
475
476
474
475
475
474
474
473
471
473
473
474
474
474
474
474
474
472
472
472
474
474
473
473
472
471
471
471
471
472
471
472
473
473
474
472
470
470
472
471
471
472
473
473
474
472
471
472
471
472
473
473
471
472
473
473
473
472
472
472
474
473
472
472
472
472
473
472
472
471
471
471
472
474
473
473
472
471
471
469
469
473
475
473
473
473
472
472
472
475
479
482
483
489
492
492
493
494
492
489
490
490
489
489
488
491
496
496
494
494
495
498
499
500
497
495
495
495
494
493
491
488
488
485
484
482
480
481
479
477
476
477
475
472
470
470
468
468
468
468
470
469
470
470
469
468
470
469
469
469
469
468
466
467
467
468
468
469
468
468
470
471
471
471
470
469
469
469
472
474
474
474
472
471
470
476
496
524
562
601
641
684
720
747
752
712
655
588
529
496
487
481
473
454
428
407
391
380
375
379
386
394
399
404
412
422
435
445
454
459
469
474
478
480
481
482
483
484
485
485
485
488
490
489
490
491
492
491
490
490
491
493
495
495
495
496
496
496
496
497
499
499
500
501
501
502
502
503
504
505
505
506
507
508
509
511
513
514
515
515
516
519
517
520
523
524
525
528
530
534
535
539
540
541
545
548
550
552
557
561
564
569
574
578
580
584
587
590
594
598
601
605
607
610
612
612
614
615
616
617
617
618
616
615
613
608
604
600
596
591
587
582
577
570
564
559
551
546
541
535
529
526
521
516
513
509
505
503
502
500
497
494
492
488
485
483
483
483
483
481
479
480
480
479
475
475
474
474
473
474
476
477
477
475
475
475
474
474
474
473
473
474
476
475
474
473
473
473
474
475
476
476
475
475
475
474
475
476
475
476
478
481
481
479
478
476
477
478
478
478
478
480
479
479
479
478
478
477
478
478
478
479
480
480
478
476
477
477
476
476
477
477
476
475
476
476
475
475
475
475
475
476
476
474
473
472
471
472
473
474
473
473
473
473
472
472
472
472
469
470
472
472
472
471
470
469
469
470
470
469
470
472
472
472
470
469
470
470
470
470
471
471
471
470
470
469
470
470
469
469
469
470
470
470
469
468
469
469
470
468
468
469
470
469
468
468
468
468
470
471
471
470
470
470
469
469
470
469
467
467
468
469
469
470
470
468
468
468
469
469
471
471
470
468
468
468
467
467
468
470
470
469
468
469
468
469
473
475
476
481
486
486
488
489
488
486
484
481
480
481
483
482
484
488
491
490
489
492
494
494
492
489
488
488
487
486
484
482
483
482
482
479
475
474
473
472
472
470
470
470
467
466
466
464
464
464
464
464
463
464
465
464
463
463
462
462
460
461
461
463
464
464
463
462
463
461
460
463
463
463
465
464
463
465
465
466
466
466
465
467
465
462
470
490
518
553
589
630
670
702
725
730
698
648
588
534
508
502
495
485
471
448
426
409
396
388
387
389
393
399
403
407
414
424
434
444
453
459
465
471
473
475
476
481
482
482
482
482
483
483
485
488
490
490
488
488
487
487
488
489
492
492
494
493
493
493
496
497
497
498
498
498
500
500
500
502
503
503
505
507
508
509
510
511
511
513
514
514
516
516
518
521
521
525
526
528
531
532
535
539
543
543
545
549
552
554
559
564
568
572
574
576
581
585
588
591
594
600
602
607
608
611
613
614
616
616
615
615
614
614
613
611
607
602
598
593
589
584
580
575
568
563
555
547
541
536
533
528
523
518
514
509
507
503
500
498
495
493
490
488
487
485
484
481
478
476
476
475
476
475
475
474
474
473
470
470
472
472
472
470
470
472
472
470
469
470
470
471
471
470
469
470
469
469
470
471
469
472
471
470
471
471
471
471
471
470
471
472
471
472
473
471
470
471
471
472
473
471
470
474
474
468
467
468
469
471
470
471
473
473
472
471
470
471
471
470
469
470
471
471
471
470
470
468
469
471
470
469
471
472
469
468
469
468
469
469
468
469
469
469
467
467
468
467
467
468
469
469
470
471
471
469
468
466
466
468
468
467
468
469
468
469
468
466
467
467
466
465
467
468
469
469
467
466
466
465
467
469
469
469
469
468
466
465
465
465
467
468
468
468
468
467
466
466
465
464
465
466
466
466
467
468
467
464
466
465
464
465
466
469
468
467
465
465
463
464
466
468
467
467
467
468
468
471
475
481
482
483
485
484
485
485
483
480
479
479
480
481
486
490
490
490
490
491
490
491
489
488
486
486
486
484
482
481
479
478
477
476
475
474
473
471
471
469
468
465
463
464
464
464
464
463
462
461
460
460
460
462
463
463
461
460
461
462
463
463
463
462
462
462
462
461
462
462
461
461
462
460
461
463
466
468
468
468
466
465
463
465
478
501
530
566
602
640
678
708
729
723
682
629
567
520
503
497
488
478
459
436
416
401
388
382
383
385
390
396
401
408
419
430
440
447
454
461
466
472
476
477
479
479
479
480
481
482
481
483
484
486
488
489
490
489
487
488
489
489
490
491
493
493
492
493
492
493
495
496
496
498
500
500
500
502
500
501
502
505
506
507
507
507
508
509
510
513
514
515
517
520
522
524
524
526
528
531
534
537
540
544
548
550
552
556
559
562
566
571
575
579
583
587
589
593
595
598
601
605
608
611
611
613
614
614
614
613
611
611
610
608
604
600
594
589
584
578
572
567
562
557
551
545
540
534
530
524
520
516
513
510
507
503
501
497
494
491
488
487
485
485
483
481
479
478
478
476
477
478
476
476
476
476
474
473
473
474
474
475
475
474
474
474
473
472
472
473
474
474
474
474
475
474
473
473
472
472
473
474
475
476
475
476
475
475
475
475
474
474
475
476
475
476
476
476
474
473
474
475
475
475
476
476
476
476
475
476
475
476
476
476
476
476
475
475
475
475
475
475
476
476
475
476
474
474
474
474
473
473
473
474
473
472
474
474
473
473
471
471
473
474
474
473
473
473
473
473
473
473
472
473
473
472
472
471
471
472
473
471
472
473
472
471
471
471
470
472
471
472
473
471
470
471
471
470
471
471
471
470
471
472
471
471
472
471
469
469
469
471
471
470
470
469
469
469
470
470
470
470
470
470
470
469
469
468
468
469
470
470
470
470
470
469
469
470
469
468
468
468
470
470
471
470
468
469
469
469
469
470
474
477
479
481
485
487
489
490
489
489
488
486
486
486
485
484
486
489
493
493
492
493
496
497
494
493
491
489
489
489
489
488
486
483
480
478
477
477
477
475
473
473
473
471
469
467
466
465
465
466
464
465
465
465
464
465
465
464
464
465
464
465
465
464
464
463
463
464
464
465
465
466
465
464
464
464
464
463
465
466
467
470
469
467
465
463
463
472
494
525
565
605
647
687
722
747
746
702
645
579
524
495
486
479
468
449
422
400
389
377
374
377
382
389
394
399
407
420
434
446
454
460
465
469
473
474
476
479
480
481
483
484
485
485
485
483
485
486
486
488
490
490
490
489
490
491
492
492
491
495
496
495
495
496
497
497
496
497
499
501
502
502
503
504
505
506
506
505
507
509
512
513
514
514
516
518
520
521
524
527
529
530
532
535
537
539
542
545
549
553
557
561
564
567
570
573
578
581
586
589
594
597
599
601
603
605
607
611
613
615
617
617
615
614
613
610
608
606
601
598
594
588
581
576
568
563
558
553
548
542
537
531
525
520
517
513
509
505
501
499
497
492
489
486
484
481
481
479
478
478
477
476
475
474
473
472
472
471
471
471
470
470
469
468
467
467
467
469
468
469
469
468
467
468
468
468
468
467
468
469
468
470
469
468
468
468
469
469
470
470
471
470
470
469
471
470
470
469
470
471
471
470
470
469
469
469
470
469
470
469
469
468
467
467
467
466
466
468
467
467
468
468
467
466
465
466
466
466
466
466
464
466
466
466
464
465
464
465
465
465
465
465
464
464
463
463
464
464
465
465
463
463
463
462
463
463
463
463
463
464
464
463
462
460
459
460
460
460
460
462
462
460
459
460
460
460
460
460
460
461
461
459
458
458
459
458
459
459
460
460
460
458
458
458
458
459
459
458
458
458
460
460
459
458
457
457
457
458
459
459
459
459
457
456
455
457
457
457
457
458
458
458
456
456
457
456
456
458
458
457
457
456
455
456
456
455
455
455
456
457
458
457
458
458
460
463
466
469
473
476
477
477
474
473
472
471
471
471
469
472
474
478
479
478
476
478
481
483
483
480
479
476
476
476
475
474
474
471
471
470
467
467
465
463
462
460
459
457
456
456
457
456
455
453
454
454
454
453
453
454
454
453
453
453
452
452
452
453
454
456
455
454
454
453
453
453
454
454
456
457
458
457
457
457
458
460
461
461
460
459
459
464
483
511
547
584
623
666
701
727
736
705
651
589
530
499
490
485
477
464
439
416
398
384
376
378
382
386
391
398
402
410
421
431
440
447
454
461
467
469
471
473
474
476
475
476
478
480
482
481
478
477
478
479
480
482
482
483
482
483
484
486
487
488
488
488
489
491
493
491
492
492
492
494
494
495
495
497
498
498
501
502
502
503
504
505
506
509
510
511
512
515
517
518
520
522
525
527
529
533
535
537
540
543
547
552
557
560
563
567
570
573
576
580
585
591
595
595
599
603
604
606
607
608
610
611
610
611
612
610
608
605
601
598
593
587
583
578
571
565
559
552
546
540
534
529
525
519
515
512
507
503
500
496
493
490
487
486
485
483
481
477
475
473
472
472
471
472
473
471
470
470
468
466
467
466
466
466
466
466
466
465
463
464
466
467
467
467
467
467
467
466
466
466
465
466
467
468
466
467
468
468
468
466
467
468
468
468
468
468
469
468
468
468
468
468
468
468
468
468
468
469
467
465
466
466
467
468
468
469
470
468
466
466
466
466
467
466
467
466
464
465
465
465
464
463
465
468
467
466
465
463
462
462
464
464
464
463
463
462
462
463
465
464
462
462
462
461
462
462
461
462
462
460
460
460
461
462
462
462
462
460
460
461
461
460
461
462
460
462
460
457
456
458
460
460
461
462
462
460
459
458
459
460
458
457
459
459
459
458
458
459
459
459
459
461
461
458
459
460
459
457
456
458
458
458
459
461
459
456
455
455
455
457
457
458
460
459
459
460
457
455
454
455
456
458
457
456
458
459
456
455
457
456
458
459
458
458
458
458
456
457
459
459
462
467
473
476
475
475
475
474
473
472
472
472
471
471
472
475
478
479
478
477
479
481
481
480
479
477
474
475
474
474
473
470
467
464
461
459
457
455
455
456
455
455
455
457
457
457
456
455
455
454
455
455
454
454
455
454
453
451
452
452
453
454
453
453
454
453
452
453
452
452
451
451
452
453
453
453
451
451
453
454
456
454
454
453
450
451
464
489
520
555
593
631
670
699
719
710
669
616
555
508
494
490
481
471
452
428
409
395
383
375
375
376
380
387
391
396
404
414
425
436
443
450
455
459
463
463
464
466
466
467
469
471
473
471
473
473
474
473
473
474
474
477
478
478
479
479
479
479
480
481
480
482
483
484
484
485
484
486
486
486
487
488
491
492
493
493
493
493
495
496
497
499
501
503
505
506
508
510
510
513
516
518
521
522
525
526
530
534
538
541
543
548
553
556
559
563
565
567
573
577
579
583
587
588
591
594
595
597
598
600
600
601
602
598
596
592
589
586
583
578
574
569
565
559
552
547
541
535
529
523
519
514
510
506
500
495
490
487
485
483
479
477
477
476
473
470
468
467
466
465
464
464
464
462
461
459
457
457
458
458
458
459
460
458
457
457
456
456
458
458
458
459
458
458
457
456
457
456
456
457
460
460
459
459
458
458
459
459
458
458
460
461
460
460
459
457
458
459
457
457
458
458
460
459
459
458
458
458
458
458
457
459
458
458
457
457
456
455
456
457
456
458
458
457
456
456
455
455
456
455
455
456
457
457
454
454
454
454
455
455
455
455
456
455
453
453
454
453
455
455
454
454
454
453
452
452
452
452
452
453
454
455
455
454
453
453
452
452
452
452
452
453
453
452
452
450
450
451
451
451
452
453
453
453
452
452
452
452
452
452
453
453
452
452
452
452
453
452
452
451
453
453
453
452
452
452
451
452
451
450
452
452
453
453
452
451
450
451
452
452
452
452
452
452
452
452
452
452
452
452
451
451
451
450
450
450
449
450
451
452
452
452
454
453
452
452
453
455
458
462
465
468
470
471
472
471
470
468
467
468
468
469
468
469
471
474
474
474
475
477
477
477
475
472
471
471
470
468
469
468
465
464
463
461
459
458
457
455
455
454
451
450
450
448
448
447
447
447
448
448
449
448
448
448
446
447
447
446
445
445
447
448
448
448
448
448
446
446
446
447
449
449
448
449
448
448
449
451
452
452
451
452
451
449
461
482
513
552
591
632
674
709
733
729
684
626
559
505
479
471
466
456
435
409
389
374
362
358
362
368
375
378
384
395
407
418
427
436
443
450
455
458
460
462
463
463
465
465
466
468
470
471
472
472
473
473
472
473
475
475
476
477
477
477
478
478
478
477
480
481
482
483
483
482
481
483
484
484
485
487
489
489
490
490
492
493
492
494
496
499
499
502
503
503
504
505
507
510
513
515
518
520
522
526
528
530
534
537
541
545
548
553
558
560
563
566
570
574
579
583
585
589
592
593
594
595
596
599
599
600
601
600
597
595
591
587
584
579
574
570
564
558
553
545
540
535
529
523
519
515
510
504
500
495
493
488
484
481
479
478
477
473
471
471
467
467
463
462
462
461
461
461
459
458
458
458
457
457
457
457
458
456
456
456
455
455
455
456
456
458
457
458
456
457
457
456
457
455
457
459
460
458
457
456
457
455
457
457
456
457
459
458
456
456
456
455
455
455
457
457
458
459
457
454
455
455
455
455
454
454
455
455
454
453
453
453
453
452
454
455
454
453
452
452
452
451
451
452
452
450
452
452
452
451
449
450
450
450
450
450
451
450
450
451
451
449
449
447
448
449
449
450
449
450
449
447
446
447
449
448
447
447
447
445
445
445
446
446
449
448
449
449
448
446
446
445
446
447
447
448
449
447
446
446
445
446
446
447
447
447
446
446
447
446
446
446
446
445
445
446
447
447
447
446
445
445
444
445
447
448
448
447
446
445
446
446
446
447
446
447
446
446
444
444
443
444
444
445
444
448
449
446
445
446
445
444
443
445
445
446
448
447
446
444
444
444
444
446
447
447
448
448
448
448
451
454
459
463
465
467
468
466
465
462
460
461
460
459
459
464
469
469
468
468
469
470
470
470
470
468
467
466
465
463
463
460
457
457
456
455
454
454
453
450
448
446
444
444
444
443
444
444
442
441
442
441
440
440
441
441
441
441
440
440
439
439
439
441
440
441
441
441
440
440
440
441
441
441
443
444
444
443
442
442
445
444
442
442
440
442
457
481
513
552
592
633
674
706
727
715
666
606
539
490
469
463
458
446
427
404
385
369
359
356
360
364
368
372
378
388
401
411
421
429
437
442
446
451
454
456
457
458
460
461
460
460
462
464
464
463
464
465
464
464
465
466
467
468
469
470
472
471
470
471
472
472
472
474
476
477
476
477
476
477
480
480
480
483
485
487
487
486
488
488
490
491
493
496
497
498
501
502
502
504
507
508
513
516
518
521
524
525
528
531
535
538
542
547
554
558
562
565
566
569
572
575
578
581
584
588
592
593
593
593
594
596
596
596
594
592
590
586
581
576
573
569
561
555
551
546
538
532
527
521
516
511
506
501
498
494
490
486
484
480
476
473
473
470
469
467
465
463
462
462
460
459
457
458
458
458
458
455
454
454
453
453
454
455
455
455
456
456
454
454
453
453
454
455
456
457
456
455
455
455
455
455
455
455
457
459
457
458
458
457
456
456
457
459
459
461
459
458
458
458
458
459
459
460
460
459
459
458
457
457
458
458
458
458
460
459
458
457
455
454
455
455
456
458
458
457
457
457
455
454
454
456
457
457
457
457
454
454
454
454
453
452
453
453
455
455
456
456
455
455
454
453
453
453
452
453
454
452
452
452
453
453
454
453
452
454
454
453
451
451
452
451
452
454
453
451
451
452
450
450
449
449
450
453
454
453
453
452
450
449
450
450
451
453
454
454
453
451
449
448
450
449
451
452
451
450
449
448
448
449
448
449
450
450
448
449
451
451
449
447
449
448
447
449
449
450
449
447
447
449
448
448
448
450
452
451
449
448
447
446
448
449
450
450
449
450
453
456
459
461
465
467
468
469
469
468
467
465
464
462
461
461
465
470
474
474
472
471
474
474
472
471
473
472
472
473
469
467
464
461
459
459
460
461
459
457
455
455
455
451
448
449
450
449
448
448
446
446
444
443
445
445
447
447
446
446
446
444
442
443
446
447
447
445
443
443
444
445
446
446
446
447
447
446
447
448
448
448
449
447
447
445
443
451
467
494
528
564
602
639
674
698
713
689
641
587
529
496
490
484
474
462
441
420
403
387
375
372
371
374
376
382
388
394
404
414
424
431
437
444
449
455
460
462
463
462
463
463
463
465
465
466
466
466
469
470
470
471
472
470
472
473
473
474
474
473
473
472
476
477
478
480
482
481
481
482
482
482
483
484
486
486
488
490
490
492
492
493
494
494
496
498
501
502
504
505
507
509
513
515
516
518
521
524
526
530
533
535
539
540
540
543
552
556
561
566
569
573
579
581
585
588
591
593
594
595
598
597
598
598
597
597
596
594
592
587
583
579
572
566
561
556
549
544
537
532
526
520
514
509
504
502
498
495
491
486
481
478
475
474
471
470
469
466
465
462
460
461
458
457
458
459
458
457
457
456
456
455
454
454
453
455
456
455
455
456
452
452
452
453
453
455
455
455
454
452
451
452
451
451
454
455
456
457
455
454
454
456
455
453
453
455
455
454
454
455
455
454
453
453
454
455
455
454
454
454
453
454
454
453
453
454
454
454
453
453
453
454
452
450
453
453
453
452
453
452
451
451
451
451
451
453
452
452
451
451
450
451
450
450
450
450
450
451
451
449
448
449
449
450
449
449
451
450
449
448
449
448
448
449
449
450
448
449
449
447
446
446
446
447
447
448
448
448
448
447
446
447
447
447
448
449
448
446
446
447
446
446
446
448
447
447
447
448
446
445
444
445
446
444
446
448
446
446
446
446
444
443
443
445
445
445
447
446
446
446
446
445
444
444
446
445
446
445
445
444
444
444
447
449
454
458
459
462
465
464
463
462
463
462
460
459
459
460
460
462
466
468
468
467
469
472
471
469
468
464
463
463
462
462
462
460
458
455
453
452
452
451
449
448
448
447
445
444
442
440
442
441
441
441
441
442
442
442
441
440
439
439
439
438
439
440
441
442
440
440
440
440
440
440
440
441
442
442
441
440
440
441
443
444
444
444
443
441
437
441
457
484
520
557
597
639
675
702
717
696
646
589
526
485
474
470
461
449
428
405
386
373
362
359
362
364
370
376
380
387
398
411
421
428
436
443
448
451
453
455
455
456
457
458
458
460
461
463
463
462
462
465
466
467
467
468
468
468
469
469
469
471
473
474
472
474
476
477
474
474
476
477
478
478
480
483
484
484
486
486
486
488
487
489
491
493
495
495
498
499
499
499
501
504
507
509
511
514
517
520
522
525
529
532
537
541
544
548
550
556
560
565
568
572
575
578
581
585
586
586
588
591
593
595
596
595
595
593
589
587
584
579
576
572
566
561
555
551
544
537
530
525
521
515
509
505
500
496
493
487
483
479
476
474
471
470
470
465
464
461
459
459
461
461
456
457
454
452
452
450
453
452
451
451
451
452
451
452
451
450
448
448
448
450
452
451
451
450
449
448
446
445
447
448
450
451
452
453
451
453
453
453
458
457
452
454
453
451
451
452
452
452
450
450
453
451
451
450
450
451
450
449
451
453
452
451
451
450
449
449
450
449
448
448
449
450
450
449
448
448
448
449
449
449
449
449
449
447
447
448
448
447
446
447
448
447
448
447
447
446
445
446
447
447
446
445
445
445
446
445
444
444
443
446
447
445
445
444
443
444
442
444
445
445
446
446
445
445
444
443
444
443
443
443
444
444
443
444
443
443
444
442
442
444
444
444
443
442
441
441
441
441
441
441
442
442
442
444
442
440
441
440
441
441
440
440
440
440
441
440
440
442
444
446
443
442
442
443
441
442
443
443
446
448
451
455
457
459
461
462
461
460
459
458
459
458
456
455
459
463
465
464
465
467
469
470
468
465
461
462
462
462
463
463
459
456
454
454
450
448
447
449
447
444
442
440
438
437
438
438
439
437
437
436
436
435
435
436
436
435
436
436
437
438
438
438
437
437
436
436
434
435
437
438
439
437
437
436
438
437
437
437
438
439
440
440
438
437
436
446
469
499
535
572
614
656
689
712
713
673
618
555
499
473
465
458
449
433
408
387
371
358
352
354
358
365
370
372
377
388
401
413
421
428
434
441
444
446
447
449
450
453
456
455
455
456
456
457
458
457
458
458
458
458
460
460
460
461
463
462
462
463
464
465
467
467
468
467
469
471
471
472
475
475
475
476
476
476
475
476
478
480
483
485
486
488
490
489
490
492
495
496
498
501
502
503
504
508
510
513
518
521
525
529
534
537
541
546
552
556
558
562
564
568
572
576
578
579
581
584
586
590
593
593
591
590
589
588
586
583
579
576
571
566
560
555
549
542
537
530
523
517
512
509
503
496
493
489
483
478
474
473
471
469
467
463
459
454
454
453
452
453
452
451
450
447
447
444
444
444
444
444
445
445
445
445
444
442
441
441
442
442
444
444
444
443
441
442
441
442
442
443
443
443
442
442
442
442
442
444
444
445
444
443
445
446
443
442
443
443
442
443
444
443
443
444
443
444
444
445
445
444
443
444
445
444
445
441
441
443
442
442
443
442
443
442
442
442
444
442
441
442
443
443
442
442
442
444
443
442
441
442
443
442
442
440
437
438
438
440
442
442
440
439
439
438
437
436
437
437
437
438
439
439
441
440
438
437
438
437
437
438
438
438
440
440
438
436
436
435
435
436
437
436
435
437
437
436
436
435
435
436
436
438
436
435
436
434
432
434
439
439
437
436
434
434
434
434
434
434
436
437
436
437
436
436
434
433
434
434
434
435
438
438
437
434
436
439
443
446
450
451
451
453
454
455
455
451
449
446
447
447
449
453
456
457
456
458
461
461
461
460
459
460
458
458
456
454
451
449
446
445
444
443
445
443
441
441
439
436
435
434
435
436
434
432
432
432
431
429
430
433
432
431
431
432
431
429
430
429
428
433
432
433
432
429
429
429
431
432
432
433
431
431
432
430
431
432
433
432
432
432
433
433
442
459
487
521
560
600
639
669
690
693
662
614
555
502
477
472
468
460
447
421
401
383
368
359
355
358
363
368
373
377
384
393
401
412
419
425
431
438
444
446
445
446
446
447
449
449
451
452
452
453
453
455
455
453
454
454
455
457
459
460
460
461
462
460
463
461
463
464
464
466
468
467
466
467
469
471
470
473
473
473
474
476
478
479
481
482
486
487
487
487
489
490
492
494
496
498
499
503
506
510
513
516
520
523
525
530
535
538
542
546
551
553
554
560
565
569
573
576
580
580
580
582
584
584
586
586
589
590
587
587
583
577
570
564
561
556
550
546
541
533
528
521
514
509
505
500
496
492
486
481
475
472
470
467
464
461
459
457
456
454
452
449
449
448
448
446
445
447
446
445
443
442
440
438
440
440
440
442
443
442
440
440
438
439
439
438
441
443
442
442
440
440
438
440
441
441
441
443
442
441
440
441
442
441
441
442
442
442
444
444
442
441
441
441
442
443
443
442
442
441
442
441
440
441
440
440
441
443
443
440
440
441
440
439
438
438
442
444
443
440
439
438
437
438
438
439
439
439
439
438
439
438
436
436
437
437
439
440
438
437
436
435
436
436
436
436
438
438
438
436
435
435
435
435
437
436
436
438
437
436
434
434
434
435
434
436
436
436
436
435
434
434
434
433
433
433
433
434
434
433
432
432
434
434
433
436
436
435
434
433
434
433
431
433
435
434
434
434
433
434
433
432
431
432
433
433
434
435
435
434
433
433
432
434
434
435
435
436
434
434
436
439
443
446
451
454
456
454
454
453
450
450
448
448
448
449
452
456
458
458
455
457
458
458
459
457
455
455
453
452
452
451
450
449
447
446
444
442
441
440
439
439
437
435
434
432
433
434
434
432
432
432
430
429
429
431
431
431
432
431
430
428
429
430
430
431
432
432
432
431
431
431
431
431
433
433
432
433
433
433
434
435
437
435
435
436
433
436
452
475
506
545
583
624
663
693
712
701
655
598
535
487
470
462
456
445
424
401
381
365
353
347
351
357
361
367
373
380
390
403
413
420
426
433
439
443
446
448
449
451
452
452
453
454
454
455
455
458
458
460
459
459
460
461
462
464
465
464
464
464
465
464
464
468
469
469
470
471
473
473
472
472
472
474
475
477
478
480
481
481
480
482
484
486
487
489
491
492
494
496
496
497
501
505
507
509
514
515
519
522
524
527
530
536
540
545
550
554
558
560
564
566
569
572
577
581
583
586
589
590
591
592
593
594
593
593
593
589
586
582
578
573
568
561
557
553
546
540
534
527
521
516
511
507
502
498
494
491
487
481
478
475
472
471
471
468
465
464
461
460
458
458
456
455
455
456
455
455
452
451
452
450
450
451
451
450
451
451
450
450
451
450
450
449
450
451
452
452
450
450
450
449
449
451
452
451
453
452
451
450
450
450
451
449
451
452
452
451
451
452
452
451
451
452
453
454
453
452
450
449
450
450
450
449
450
450
452
451
451
451
449
449
450
451
452
450
450
450
450
448
448
448
448
449
450
451
451
449
450
447
448
448
448
447
447
448
449
450
449
446
446
447
448
447
447
449
448
448
447
446
447
448
447
446
448
448
447
447
446
445
445
446
445
444
447
447
446
446
445
445
446
446
446
446
447
447
446
445
445
445
443
443
443
446
447
446
444
445
444
444
443
443
445
445
444
446
445
445
445
445
444
445
446
447
445
444
443
443
443
444
443
443
443
442
442
444
446
443
444
444
443
444
446
448
451
453
456
459
460
461
462
462
462
460
459
458
459
459
458
458
463
465
465
464
467
470
469
468
466
464
463
463
464
463
463
462
458
455
453
453
451
450
450
449
447
448
447
443
441
439
439
439
441
439
440
439
439
438
438
438
438
439
440
440
439
440
439
437
438
436
436
437
437
437
439
440
442
442
439
439
439
440
441
442
445
447
445
441
439
439
440
452
475
508
547
585
626
666
699
722
717
672
613
546
496
475
468
460
450
430
404
382
369
357
353
356
361
366
370
375
383
394
407
419
426
432
439
443
445
449
451
453
455
455
456
457
458
458
457
457
458
458
460
463
466
467
465
464
465
465
464
466
467
468
469
472
473
473
472
473
471
472
474
475
477
477
477
478
480
482
482
484
485
486
489
490
491
492
492
492
494
497
499
502
504
507
508
510
512
514
518
520
523
528
532
536
538
541
546
548
552
558
562
566
571
575
578
582
584
586
589
592
594
597
599
600
599
600
598
596
594
592
589
587
581
573
567
563
557
550
545
542
534
529
529
524
512
506
503
501
500
488
484
490
485
482
477
470
464
464
468
466
459
456
460
458
458
458
456
454
454
455
454
455
454
454
456
458
454
455
457
455
454
457
459
458
454
452
453
455
453
454
455
456
457
458
454
455
452
452
456
457
456
457
457
455
454
455
456
456
455
456
459
457
456
458
458
456
455
455
456
455
456
457
457
457
456
456
455
456
457
455
456
458
457
458
457
458
453
451
453
455
455
455
455
456
454
453
452
451
453
452
454
453
452
450
450
449
446
447
449
449
452
452
449
448
450
449
448
449
448
449
451
452
451
449
448
446
447
449
449
448
448
450
449
449
448
445
446
445
447
451
450
447
448
448
448
445
443
445
448
446
446
445
446
447
447
445
446
448
447
445
445
446
447
447
447
445
444
443
444
443
444
446
448
448
446
443
444
445
444
445
449
450
445
445
447
443
441
444
444
446
447
447
446
444
443
446
444
445
447
450
454
457
460
463
464
464
464
463
462
460
462
460
460
457
458
464
465
464
466
467
470
471
471
472
467
464
462
462
462
465
465
462
459
457
454
453
452
450
449
449
448
444
444
444
443
442
441
442
441
441
443
442
443
441
442
442
438
435
437
438
439
442
443
442
442
441
440
440
440
439
441
444
444
442
443
441
439
442
442
444
449
450
448
446
443
441
449
467
493
528
567
605
643
680
704
716
693
646
586
527
492
482
474
465
451
431
408
391
379
368
365
368
372
375
378
382
389
400
412
424
432
438
445
448
451
454
455
455
456
458
460
463
465
462
462
462
463
467
469
468
467
465
467
467
469
470
469
469
471
474
473
474
474
475
476
477
479
479
478
479
481
482
482
483
484
486
485
486
487
489
492
493
493
496
497
498
500
502
503
506
508
508
510
512
515
518
520
525
529
531
535
539
544
546
550
554
558
561
567
572
578
582
584
587
588
590
591
595
597
599
600
601
599
599
597
595
594
591
588
585
580
575
569
562
555
548
542
539
534
528
520
516
511
505
500
493
490
489
485
483
479
475
472
470
468
468
465
463
461
461
461
460
460
457
455
456
456
454
455
453
454
454
454
453
453
451
451
452
454
453
454
453
452
452
452
451
450
452
453
454
452
451
451
452
452
452
451
452
453
452
451
452
453
455
455
454
453
452
454
454
455
455
456
457
455
451
451
451
452
453
453
454
454
453
452
452
453
454
453
452
453
453
452
452
452
452
451
452
452
452
452
452
451
450
450
450
450
452
451
451
452
452
453
453
453
449
449
450
449
450
450
451
451
450
450
450
448
447
449
450
450
450
449
447
449
450
450
450
448
450
450
448
447
450
447
445
446
446
446
449
449
448
446
446
445
445
444
446
447
448
448
448
447
445
445
446
447
447
446
448
448
446
446
446
447
447
448
448
446
447
448
448
447
445
447
446
446
446
447
448
449
447
448
447
446
444
444
446
447
447
448
448
446
446
447
446
445
446
445
447
450
449
451
453
457
462
466
466
468
466
466
465
463
461
459
460
460
461
466
471
472
470
470
472
470
471
471
468
467
468
469
466
466
464
460
458
456
455
455
455
456
454
455
452
448
446
445
444
442
444
444
443
443
443
442
441
442
442
443
443
443
442
442
442
441
440
441
442
444
444
446
442
442
443
442
442
444
445
443
444
445
445
443
445
447
446
445
446
445
445
455
476
505
542
582
623
666
701
727
728
688
634
569
510
481
471
465
455
439
415
393
376
363
358
361
364
371
377
381
390
401
413
424
432
438
443
448
454
457
458
460
461
463
462
462
463
465
464
467
467
467
466
468
468
468
469
470
473
474
476
475
474
474
474
475
478
477
477
480
481
482
482
482
481
482
485
488
488
487
489
491
489
490
491
493
494
496
499
500
501
504
505
505
507
509
511
513
518
521
524
525
528
531
535
539
543
546
549
554
557
562
565
570
574
577
580
583
588
590
594
596
598
600
601
601
602
602
603
603
601
599
597
591
587
581
577
572
566
561
555
550
544
537
530
525
521
517
511
505
502
497
494
489
488
483
481
479
476
474
474
471
468
466
465
463
463
462
463
462
463
461
460
458
458
458
458
459
459
458
459
459
455
456
455
457
456
458
455
455
456
455
455
457
456
457
457
455
457
459
456
458
457
456
455
456
459
458
457
457
458
459
458
455
455
456
458
459
459
457
456
457
456
455
456
456
455
456
456
455
456
456
455
455
455
455
453
455
456
455
454
454
453
453
453
452
451
452
454
454
454
451
451
452
451
451
453
453
454
455
451
450
450
449
448
447
449
450
451
449
450
450
450
449
448
448
449
448
448
449
450
450
447
448
447
448
449
450
449
449
448
446
447
447
447
446
446
448
447
448
448
447
446
445
446
446
445
447
447
448
447
446
446
447
447
445
445
447
448
448
447
447
446
445
445
446
446
445
447
448
446
446
446
446
445
446
447
447
445
447
446
445
444
445
446
444
446
446
445
444
444
444
444
443
444
443
443
444
445
445
445
445
446
446
444
442
443
447
446
447
449
450
449
453
456
462
464
465
467
466
465
463
460
458
458
459
458
461
465
468
467
466
467
468
470
470
468
467
466
466
466
464
463
462
459
458
457
456
457
454
452
452
450
448
446
445
444
445
445
445
445
443
443
444
442
444
444
444
443
442
442
442
441
440
440
439
439
440
441
442
442
440
441
441
441
441
441
443
445
443
441
441
442
444
442
443
442
443
441
442
458
482
515
553
592
633
674
706
728
715
665
608
544
494
475
468
461
448
427
402
382
367
355
352
357
364
367
373
380
389
399
410
420
427
434
441
444
449
452
454
455
457
456
456
456
456
458
460
461
461
459
460
461
462
463
465
465
466
467
468
468
467
468
468
469
469
471
473
474
475
476
476
475
475
477
478
480
481
483
484
484
483
484
486
486
488
490
493
494
496
497
497
499
502
504
506
509
511
514
516
518
521
524
528
532
537
540
544
549
553
557
559
562
565
569
574
578
582
586
588
591
592
594
595
597
596
596
598
598
596
593
591
587
583
579
574
569
564
558
551
545
537
532
525
520
515
510
505
502
497
492
488
484
480
477
476
474
471
469
466
466
464
462
460
458
458
456
455
455
456
455
454
452
454
454
453
453
452
450
450
448
450
452
450
451
453
451
448
448
448
449
447
450
451
453
453
453
455
455
456
455
455
455
454
454
456
456
456
456
456
456
455
454
455
455
456
458
458
457
456
457
459
458
456
456
455
456
458
459
457
456
456
454
454
456
457
457
457
454
454
455
454
452
452
453
453
455
457
457
456
457
456
453
453
454
454
455
455
454
454
454
452
450
451
450
451
451
454
454
453
450
450
449
449
449
449
449
449
449
449
449
447
447
446
446
448
448
448
446
446
446
446
446
447
448
447
447
447
448
447
445
445
444
445
445
445
445
446
447
447
446
445
444
443
444
445
444
444
444
445
444
444
444
443
445
445
443
442
443
444
444
444
444
444
443
443
444
445
445
445
444
443
443
444
443
442
441
442
442
441
440
441
441
441
443
441
442
443
443
443
443
443
440
441
442
443
444
446
449
449
451
453
456
459
461
462
462
463
459
457
457
457
456
455
457
461
465
466
465
466
467
469
470
467
464
464
464
461
460
459
457
456
454
453
452
452
452
452
452
450
448
446
441
441
442
442
444
445
443
440
439
438
439
440
442
441
441
441
441
441
440
440
440
440
439
440
441
440
442
442
441
440
441
442
443
442
442
443
443
445
447
446
444
440
438
439
454
475
504
540
578
618
655
682
704
704
668
618
563
511
489
485
478
467
452
431
409
393
381
370
368
370
374
378
382
387
396
406
417
426
432
437
442
447
452
457
458
456
458
460
461
463
463
461
461
464
466
467
467
465
466
468
467
469
469
470
472
472
471
473
474
474
476
478
480
479
481
482
480
479
480
482
483
484
485
486
489
490
488
488
490
491
493
494
498
499
501
504
505
504
506
508
509
511
516
520
521
523
528
531
534
535
539
543
547
552
556
560
564
568
571
573
578
581
586
589
590
592
593
594
595
596
598
599
598
598
597
594
591
588
583
577
571
565
559
555
549
543
538
533
527
522
515
509
505
501
498
494
490
486
482
478
475
472
471
470
470
467
464
463
462
460
458
458
460
460
458
456
455
456
456
455
455
455
455
453
454
455
456
455
453
454
452
452
454
455
455
454
453
455
455
454
454
454
454
457
455
453
454
454
453
454
454
454
455
457
456
456
455
455
455
454
454
454
455
455
455
454
454
453
452
452
452
453
454
455
457
456
454
453
454
453
454
453
453
454
453
451
449
450
450
452
450
452
453
452
453
452
452
451
452
450
451
452
451
451
451
452
453
451
451
450
450
451
451
449
449
451
450
449
448
448
450
451
451
451
449
449
450
450
447
444
447
448
448
448
450
450
449
449
449
448
447
446
445
447
448
448
448
446
445
447
448
448
447
450
450
448
447
447
446
444
446
447
448
449
448
448
447
444
446
447
448
447
448
448
447
447
447
446
446
445
444
445
448
448
449
447
448
449
448
447
446
447
451
453
454
459
463
464
463
464
466
467
465
462
462
461
460
461
461
466
471
472
470
471
474
473
473
472
470
469
467
465
465
466
467
466
462
459
459
457
455
454
453
455
454
451
449
446
445
445
446
446
446
446
447
447
446
445
445
444
444
445
444
446
447
446
446
446
445
445
446
447
447
447
448
447
446
445
447
448
447
448
450
450
450
451
450
449
446
451
468
495
530
564
602
641
676
701
717
700
654
599
541
501
490
485
474
463
441
419
401
387
376
372
373
372
376
382
386
393
403
415
426
435
443
450
454
455
457
460
462
463
465
467
467
467
468
467
467
468
470
472
474
474
474
474
474
474
475
475
476
479
479
479
480
481
481
481
482
483
483
484
486
487
487
486
488
490
490
491
492
494
496
497
498
498
499
499
501
503
505
507
510
511
513
514
516
518
522
523
526
531
535
538
540
543
546
550
554
555
562
566
571
575
579
582
584
587
590
592
594
597
598
600
601
601
600
600
599
598
596
595
593
589
584
577
572
567
562
556
549
543
540
534
528
521
516
511
507
503
499
496
492
490
487
484
480
476
476
475
474
471
470
469
468
466
467
466
464
464
462
462
463
464
462
461
460
461
460
461
461
461
462
461
461
460
460
459
460
461
461
460
461
463
461
460
462
461
460
459
461
462
461
462
462
461
460
461
460
461
462
462
462
463
462
461
461
461
462
461
462
462
463
462
460
460
461
461
462
460
460
461
461
462
462
461
461
459
459
459
460
462
462
460
460
460
459
459
458
458
458
459
459
459
460
459
458
458
459
458
458
458
458
457
457
457
458
458
456
456
456
458
457
457
458
457
455
456
457
457
457
459
458
458
458
456
456
456
456
456
458
460
459
458
458
456
455
455
455
456
457
457
456
458
458
456
456
457
456
457
457
458
458
457
457
457
457
457
456
458
457
458
457
458
457
457
456
456
456
457
456
458
458
458
457
456
457
457
456
457
456
455
457
458
458
457
457
458
460
462
466
470
474
478
480
478
479
477
475
473
474
476
475
473
474
477
481
482
479
480
484
485
485
485
481
478
477
478
478
478
476
476
474
473
470
466
466
465
465
463
464
463
460
458
457
456
457
456
456
456
457
457
457
456
456
457
456
455
454
454
456
457
457
457
456
456
456
455
456
456
458
457
456
456
455
455
455
457
458
460
463
463
460
458
456
458
474
500
537
574
613
656
695
725
742
723
672
612
547
503
487
480
473
459
436
412
394
380
370
369
375
381
387
391
396
406
416
430
439
447
455
461
466
468
469
470
472
473
475
476
476
478
480
480
480
477
478
481
481
482
484
485
485
485
485
486
486
486
487
487
489
489
491
491
490
490
490
492
494
495
496
497
498
499
499
499
500
501
503
505
507
508
509
510
511
512
514
516
518
520
523
526
528
529
530
531
535
538
542
545
549
552
555
559
564
568
570
574
578
584
587
592
595
597
598
602
604
606
608
611
613
614
613
612
610
609
607
604
602
599
594
590
585
580
572
567
561
555
549
544
540
535
529
524
520
515
511
507
503
498
496
494
492
489
485
483
482
480
478
478
479
478
477
474
473
473
472
471
471
470
471
470
470
469
469
469
469
469
470
469
469
470
469
469
468
468
467
469
470
468
467
469
468
467
467
467
468
468
467
468
470
470
469
470
468
469
468
467
467
468
468
468
467
467
466
465
465
465
465
466
466
466
466
466
465
464
464
465
465
465
465
464
464
464
461
462
464
462
462
462
461
462
463
463
460
459
460
460
460
462
463
462
461
460
458
459
458
458
459
459
460
460
460
459
458
457
457
457
456
458
458
458
458
458
458
458
456
455
456
455
456
456
456
456
456
454
454
455
455
456
457
454
454
455
456
455
455
454
455
455
455
455
454
453
452
453
454
454
456
456
455
455
454
454
454
453
453
454
454
453
454
454
454
454
454
453
452
452
453
453
455
455
455
455
453
452
453
453
453
454
453
453
454
453
453
454
453
455
457
461
465
468
470
471
472
471
470
469
468
468
469
470
468
466
470
474
475
475
475
478
479
479
479
476
474
474
474
472
470
471
470
468
465
461
459
460
460
459
458
457
457
454
452
451
451
452
451
450
450
451
450
450
449
448
447
449
448
447
449
450
449
450
450
449
448
447
448
448
449
451
450
450
450
447
448
449
449
451
453
456
455
453
452
449
451
466
489
521
560
599
640
679
704
722
708
661
606
545
501
489
484
476
465
445
420
400
388
376
371
373
377
381
387
391
397
408
417
426
435
443
449
455
459
461
461
462
462
462
464
467
467
470
470
470
469
470
471
473
475
475
477
476
475
476
475
475
478
478
478
479
481
482
482
482
482
482
484
485
485
488
488
488
490
491
492
492
492
492
494
497
499
500
500
501
503
505
508
509
511
513
515
516
518
521
525
527
530
533
535
539
544
547
550
555
558
562
564
566
570
575
580
584
588
590
592
594
595
598
601
604
605
605
605
603
602
599
596
595
592
588
582
577
571
566
560
554
549
543
536
532
528
522
515
510
505
501
498
494
492
489
486
483
482
478
474
472
470
470
468
467
469
468
467
464
463
463
463
463
463
463
463
462
461
459
457
457
459
460
460
461
463
462
462
461
459
460
461
462
463
462
461
459
461
460
459
461
461
463
463
464
462
462
461
460
461
460
460
461
462
463
462
462
461
461
462
461
463
463
464
464
462
460
461
462
460
459
461
461
462
462
462
461
458
459
458
457
458
459
460
461
461
460
460
460
458
458
457
455
457
459
460
459
457
455
456
458
457
456
459
457
456
456
457
457
457
456
455
454
455
456
457
456
455
454
455
455
454
455
455
456
457
456
454
454
455
453
453
453
455
457
456
455
455
454
453
454
454
453
454
453
454
454
453
452
452
453
453
453
453
454
454
452
450
450
452
453
452
452
453
454
454
454
453
451
453
453
452
451
451
451
451
452
452
454
456
462
466
470
473
473
470
470
469
466
465
464
464
463
466
473
475
472
470
472
475
476
477
476
476
474
473
472
469
468
467
465
464
464
463
460
459
458
457
455
454
452
452
452
450
450
448
447
445
447
448
449
447
448
449
449
448
448
448
447
447
447
446
448
448
448
449
448
447
447
448
448
449
450
450
450
450
450
451
452
452
451
450
449
448
455
471
496
530
569
607
644
679
702
713
689
641
585
528
496
487
482
474
462
441
419
401
387
376
373
373
374
380
386
390
395
406
417
426
434
441
447
453
457
458
461
461
461
463
464
466
467
468
468
470
470
470
469
471
471
472
472
473
475
476
476
476
476
476
477
478
479
480
481
482
483
483
482
483
484
486
486
488
487
489
491
493
494
494
493
492
495
498
500
502
503
503
504
507
509
510
513
514
518
523
524
525
529
532
535
538
543
547
550
554
558
562
564
568
572
574
578
582
587
589
591
593
595
597
597
599
601
601
601
599
597
596
593
588
586
580
576
571
567
561
556
550
543
537
531
528
522
515
512
509
505
501
497
494
489
486
483
481
480
479
476
474
472
470
469
467
466
466
466
465
467
466
464
464
464
462
463
464
463
463
464
463
462
464
463
460
461
462
463
464
462
461
462
463
464
461
462
463
462
464
464
462
462
462
462
462
462
462
462
463
463
462
461
461
460
461
462
462
464
465
462
461
461
460
461
461
461
461
461
462
462
460
460
460
462
461
460
462
462
461
462
462
459
459
459
458
459
461
461
460
460
458
458
458
457
457
458
458
459
460
459
457
456
456
456
457
457
458
457
457
457
455
456
456
456
455
457
456
456
456
456
456
456
455
453
453
453
455
456
456
455
454
453
452
453
454
454
454
455
456
455
454
453
452
452
453
453
453
454
454
453
453
453
453
452
453
454
453
453
455
454
453
452
452
453
453
453
454
455
455
455
452
453
455
455
452
452
453
458
460
464
467
471
474
474
474
475
474
471
471
471
471
469
469
472
477
479
478
478
480
482
481
480
478
476
476
476
475
474
473
472
470
468
465
463
462
463
463
462
461
459
456
454
454
454
454
454
455
455
455
454
453
452
453
454
453
453
453
453
453
453
452
451
450
451
452
452
453
453
454
455
453
452
453
453
454
455
456
457
458
459
455
455
452
453
466
490
522
561
600
639
680
712
733
728
683
627
562
509
486
479
471
460
441
415
395
382
370
366
370
375
379
384
390
398
410
422
434
442
449
455
458
461
462
464
468
469
471
471
471
471
473
472
472
474
477
478
476
477
477
478
477
478
479
480
481
482
483
484
484
483
485
485
485
485
487
489
491
492
491
491
491
492
493
494
495
498
500
499
500
501
503
503
505
506
508
509
512
514
516
518
519
522
524
527
530
534
536
541
544
545
549
552
556
560
565
569
574
577
580
582
585
589
591
594
596
600
602
604
605
605
604
604
604
603
602
602
599
595
591
585
579
573
567
562
556
551
546
541
534
529
523
518
515
510
505
502
500
495
492
489
485
482
480
479
479
478
475
474
473
471
469
468
467
466
466
468
468
467
467
465
464
465
466
465
465
466
467
466
464
465
465
464
464
465
466
466
467
467
466
465
465
465
466
467
467
467
467
467
468
467
466
465
465
466
466
466
466
467
466
465
464
463
462
464
465
466
466
466
466
463
462
464
463
462
463
465
465
464
463
462
460
460
461
460
459
461
462
461
461
459
459
458
457
457
458
459
459
460
460
458
457
458
458
458
458
457
459
457
455
457
456
455
455
456
456
457
456
457
455
454
454
454
454
454
456
457
456
456
455
453
453
452
452
453
454
454
455
455
455
454
454
453
453
452
452
453
453
453
451
453
454
452
452
451
451
453
454
454
453
451
451
452
452
453
454
453
453
451
451
451
451
450
451
452
452
453
453
452
450
449
450
451
451
453
452
452
454
456
458
460
463
466
468
469
471
471
470
468
465
465
465
465
465
468
473
474
475
474
476
477
477
477
474
472
473
472
472
470
470
467
466
463
460
458
458
459
459
457
455
452
449
448
448
447
447
449
450
449
447
447
447
445
446
445
446
446
446
447
446
445
445
445
444
446
446
446
446
445
447
446
445
446
446
446
446
446
449
451
451
452
451
448
447
445
450
470
496
530
568
608
649
685
710
723
697
646
587
527
491
480
474
465
453
433
411
393
379
371
367
369
373
378
383
387
396
410
421
428
436
444
447
452
455
458
459
461
462
464
464
464
466
467
467
468
469
469
471
472
470
471
469
470
473
474
475
477
477
478
477
476
479
479
480
482
482
483
485
485
485
485
485
486
488
490
491
494
495
495
495
497
497
497
500
502
505
507
508
509
509
511
513
518
520
522
525
528
531
535
536
539
543
545
549
555
560
564
568
572
574
576
578
581
586
589
591
595
598
600
601
601
604
604
603
601
602
602
599
596
590
583
579
575
569
565
561
556
550
542
534
528
524
519
514
510
507
503
500
495
489
487
484
481
479
476
475
474
473
471
471
468
465
465
465
466
465
464
464
463
463
462
461
461
460
460
460
461
461
461
459
458
459
460
461
461
461
459
459
459
458
457
460
462
462
463
463
463
462
462
462
461
460
460
462
463
464
464
463
462
460
461
460
461
464
464
464
462
461
460
462
463
463
460
461
462
462
461
460
459
460
460
461
462
460
461
462
462
460
460
460
459
457
459
460
459
458
459
459
459
457
457
455
456
457
458
458
455
455
456
457
456
454
454
456
456
456
456
454
454
454
454
453
455
456
456
454
453
455
455
454
453
452
453
453
454
455
456
454
454
454
453
453
455
454
453
454
454
454
451
451
452
452
452
452
454
453
455
454
451
451
451
452
451
451
452
453
454
452
451
451
451
450
451
452
453
451
452
454
452
453
453
453
455
458
460
462
466
467
467
468
469
470
471
468
466
464
464
465
463
466
470
473
473
474
478
481
481
478
476
476
474
472
471
471
473
472
470
464
462
460
458
460
459
460
461
458
455
450
449
450
450
448
448
448
450
453
452
448
446
447
447
447
449
450
449
449
450
448
447
449
448
448
447
448
449
449
449
448
449
450
449
450
449
452
454
453
450
450
448
447
453
470
498
534
570
609
647
679
700
709
682
635
580
525
496
490
486
475
460
439
417
400
387
377
374
374
376
382
388
391
399
407
417
427
435
442
450
453
457
459
460
461
463
464
467
467
468
468
468
469
469
470
472
472
474
474
473
473
473
473
474
476
476
477
478
479
479
479
478
479
481
483
483
485
486
487
487
486
486
486
489
492
491
494
497
496
497
498
499
500
501
503
505
507
510
512
514
516
518
520
522
526
530
533
536
541
543
545
548
551
555
560
565
569
573
577
580
583
586
588
591
594
596
600
601
602
602
601
601
600
597
596
593
591
588
584
578
572
565
558
553
547
542
537
532
525
520
516
512
507
502
499
496
493
491
489
484
480
478
475
472
472
471
469
469
468
467
465
464
463
463
463
462
462
464
465
463
463
462
459
459
460
461
460
461
461
460
461
461
459
458
460
461
461
461
461
461
460
460
459
459
458
459
460
460
461
461
459
459
459
459
460
460
461
462
462
461
461
461
461
459
459
460
461
461
461
460
459
459
458
456
458
459
461
461
460
460
459
457
458
459
458
458
459
458
459
458
458
457
456
456
455
454
456
458
457
457
456
455
454
454
455
456
458
457
456
457
456
455
454
456
455
454
454
455
455
455
452
452
453
453
454
454
454
456
455
453
452
452
453
452
451
453
453
455
453
451
451
450
451
451
451
453
453
453
453
453
452
452
453
453
453
454
455
455
454
454
452
453
453
453
452
453
454
454
455
454
453
452
452
452
453
455
457
459
463
465
466
469
471
473
474
474
472
472
472
468
466
469
470
473
476
480
481
480
479
479
477
473
472
473
474
474
473
472
469
467
466
463
460
458
458
459
457
456
455
452
449
449
449
450
451
450
450
451
450
449
447
448
447
448
448
449
449
449
448
448
449
448
447
448
448
448
450
450
450
450
449
449
449
449
449
450
453
455
456
455
452
450
449
455
473
499
534
572
612
653
690
715
728
703
652
591
531
492
480
473
465
450
426
404
387
374
365
364
370
376
380
385
390
400
413
424
434
442
448
452
456
459
461
462
464
466
466
467
469
470
471
472
471
472
473
475
476
476
475
474
475
476
477
478
479
480
482
483
482
482
482
483
484
485
486
488
489
490
491
490
490
491
492
494
495
496
498
498
500
500
502
502
506
