505
505
506
505
504
502
501
500
499
499
499
500
500
499
497
496
495
494
494
494
495
495
495
494
494
493
493
492
493
493
494
495
494
494
493
491
491
491
491
493
492
493
493
493
492
492
490
491
491
493
496
498
500
501
505
508
510
512
513
513
512
513
513
511
509
508
509
512
517
521
524
524
525
523
521
518
517
517
518
519
517
516
515
512
507
502
499
497
498
498
497
496
493
491
490
489
488
488
488
488
489
488
488
488
487
487
486
486
487
487
487
488
488
488
488
487
486
486
485
487
488
489
489
489
489
489
487
487
488
489
491
494
492
488
484
481
487
506
535
569
608
650
692
725
745
752
719
662
602
547
519
513
510
501
488
467
447
430
418
410
409
412
415
421
426
432
441
452
463
473
482
490
494
498
499
503
505
506
507
507
507
507
508
510
509
509
510
509
510
512
513
514
515
516
516
515
517
517
518
520
521
522
522
523
522
523
524
524
526
526
529
531
532
532
531
532
533
535
537
538
539
541
542
543
544
545
546
547
551
554
555
557
560
562
564
566
568
571
574
578
584
587
590
590
593
596
599
601
603
607
610
613
616
617
619
622
622
623
624
625
626
626
627
625
621
617
613
610
606
602
598
594
589
584
579
573
567
562
558
554
551
547
542
538
534
531
527
524
521
519
517
517
514
512
509
507
505
504
504
504
503
504
503
502
501
500
499
500
499
499
499
500
499
499
499
499
498
498
497
498
499
500
500
500
499
498
499
500
499
500
502
502
501
500
500
500
499
500
500
501
501
500
500
500
500
499
499
499
500
500
500
500
500
499
499
498
498
498
498
499
499
498
499
499
497
497
497
496
496
497
497
498
496
496
496
496
494
494
495
495
496
496
495
494
493
492
492
492
493
494
494
493
493
494
493
492
492
492
491
491
491
491
491
490
490
490
490
490
491
489
490
490
490
489
488
489
489
489
490
490
491
491
491
490
489
489
489
488
488
489
490
491
491
490
489
488
489
489
489
490
490
490
490
490
489
489
489
490
491
494
496
499
502
506
508
510
510
509
510
511
511
510
508
508
510
513
516
519
520
521
522
521
519
515
514
515
515
513
514
513
510
508
504
500
497
496
495
493
493
491
490
489
488
487
486
486
485
485
486
485
485
485
485
485
484
483
483
483
484
486
485
483
485
484
483
482
482
483
485
486
486
486
486
485
485
484
484
485
485
486
485
483
481
480
491
512
543
581
623
667
710
742
762
759
713
653
585
531
510
503
498
489
470
446
427
413
401
397
401
406
413
419
424
433
445
458
468
477
485
492
496
499
501
502
502
504
505
506
506
508
511
510
510
510
510
511
511
512
513
514
515
516
517
516
515
515
517
518
520
522
522
523
524
523
523
524
525
527
528
529
530
532
532
532
533
535
536
537
538
540
541
543
544
545
547
549
551
553
555
558
561
562
565
568
569
572
575
579
583
586
590
593
597
599
601
604
607
609
612
616
618
620
621
623
624
626
626
627
628
629
629
627
624
621
617
613
610
606
600
596
592
587
582
576
569
564
560
556
552
548
544
540
536
532
528
525
523
520
519
517
515
514
513
510
508
506
504
503
503
504
503
502
502
501
499
500
500
499
500
501
500
500
500
499
500
499
499
500
500
501
502
502
501
500
500
500
501
502
502
503
504
504
503
502
501
500
501
501
502
502
502
502
501
501
500
500
501
500
500
500
501
501
499
498
498
498
499
498
499
499
498
498
498
498
498
497
497
495
495
496
496
496
495
494
494
494
495
495
496
497
497
496
495
495
494
494
494
493
494
495
495
495
493
492
492
492
492
492
493
493
493
493
492
491
491
491
491
491
492
493
494
492
491
491
491
490
490
490
490
491
492
491
491
490
489
488
488
489
490
491
491
491
492
490
489
489
490
491
491
490
490
491
490
489
490
492
495
497
498
503
508
510
511
510
509
510
510
510
509
509
510
511
513
516
519
521
521
522
522
521
518
516
516
516
516
514
513
511
508
504
502
499
498
497
495
493
492
490
488
488
488
487
486
485
485
484
482
483
484
486
485
484
484
485
483
483
483
483
483
484
484
485
483
483
483
483
483
484
486
486
485
484
483
483
484
485
485
484
483
481
480
487
506
534
570
610
652
697
735
761
769
732
672
603
541
511
502
496
487
471
449
429
414
401
396
399
402
407
414
421
431
443
454
465
475
482
487
493
497
499
501
502
503
503
503
504
505
507
508
510
510
510
510
510
511
512
513
513
514
515
516
516
515
516
517
518
520
522
523
522
522
521
522
522
523
523
525
527
529
531
532
534
534
533
534
536
537
539
541
543
545
546
547
548
550
553
555
558
561
564
568
570
570
573
577
581
583
587
592
596
599
602
604
608
610
612
614
617
620
623
625
626
627
627
628
628
628
628
627
625
623
619
615
611
606
602
597
593
585
581
575
569
563
558
554
550
546
541
538
535
531
527
523
519
517
513
512
510
509
508
507
506
504
502
500
499
499
499
500
500
499
498
498
497
495
495
497
498
497
498
499
497
496
494
494
494
495
496
497
498
498
497
496
495
495
495
494
496
498
498
497
496
496
495
494
495
496
496
497
497
496
495
495
495
495
495
494
496
497
496
495
494
494
493
494
494
494
495
495
495
494
494
494
493
491
492
493
492
493
493
493
494
493
492
490
490
489
490
491
492
491
491
490
487
487
487
488
489
489
490
490
489
489
488
488
489
489
489
490
491
489
488
487
487
487
487
487
487
488
489
488
488
487
486
486
487
488
489
489
488
488
486
486
486
487
487
488
490
489
489
488
486
486
485
485
486
487
487
488
488
487
486
486
485
486
486
486
486
487
488
487
489
492
493
494
499
502
505
507
506
506
506
505
505
503
503
503
505
510
513
515
517
516
516
516
515
513
513
513
513
512
510
509
507
504
500
497
496
495
494
493
491
489
486
484
483
483
483
484
483
482
482
481
481
481
481
481
481
482
483
482
481
480
479
479
478
478
479
481
481
480
479
479
478
479
480
480
481
481
480
482
483
482
480
478
476
476
482
501
528
562
600
639
680
714
737
746
716
662
601
543
514
509
504
497
486
467
447
429
417
406
402
402
405
412
417
423
432
444
454
463
470
477
482
485
489
492
496
497
498
498
498
499
500
501
501
503
503
504
505
503
504
505
504
505
506
507
510
510
509
509
509
509
510
511
513
515
515
517
517
518
519
519
520
521
523
524
524
525
526
527
529
530
532
534
537
539
540
539
542
544
547
548
549
551
555
558
560
563
567
570
572
574
578
582
586
590
594
596
598
601
604
605
607
610
612
614
616
617
619
620
621
621
620
618
616
615
613
609
605
600
595
589
584
579
574
571
567
561
556
551
546
541
533
531
528
524
522
521
517
514
511
508
505
504
502
501
501
499
498
497
496
495
493
493
493
494
495
495
493
491
490
490
489
490
490
492
491
491
491
491
491
490
490
490
490
491
492
492
491
489
489
490
490
491
491
491
492
493
492
492
491
491
492
491
489
489
492
494
494
492
492
491
491
491
493
494
495
494
494
492
490
491
492
492
491
491
493
491
490
490
491
490
489
490
491
491
490
491
491
489
488
487
487
488
489
490
490
490
490
489
489
488
487
488
488
489
490
488
488
487
486
486
486
486
487
488
488
486
485
485
484
484
484
486
486
486
486
485
487
486
486
485
483
483
485
487
486
485
485
484
484
483
483
484
485
486
486
485
483
483
484
485
486
486
485
486
486
486
485
484
486
488
490
493
497
500
503
504
503
503
502
502
502
500
499
501
503
507
509
511
514
513
513
513
512
511
511
510
509
506
506
504
502
501
499
496
494
493
491
489
488
487
485
482
483
484
484
484
483
481
480
479
479
479
480
481
481
480
480
480
478
479
479
478
478
479
480
480
480
479
479
479
480
480
481
480
479
480
481
482
482
483
481
481
480
477
484
501
528
562
599
640
682
717
739
747
717
663
602
545
516
511
507
500
487
467
446
429
415
404
402
403
407
413
419
425
435
445
456
464
472
479
484
489
492
496
498
499
500
500
501
501
502
503
503
505
507
507
506
505
506
507
508
509
511
512
513
512
510
512
513
514
514
516
518
520
520
519
519
519
520
521
522
524
526
527
529
530
531
531
533
534
535
537
539
541
542
544
545
546
548
551
554
556
559
562
565
568
570
574
577
580
583
586
589
594
598
601
604
607
609
611
614
616
620
622
624
626
626
625
625
626
626
624
622
619
616
613
609
604
598
593
588
584
580
575
570
564
558
552
548
544
540
536
534
530
527
523
519
517
515
514
511
509
509
507
505
503
502
500
499
498
498
499
499
498
497
497
497
496
496
496
495
496
497
497
497
497
495
494
495
496
497
497
499
498
498
498
497
495
496
496
496
496
497
498
497
497
496
496
496
495
496
497
499
498
498
498
497
496
496
497
496
497
498
498
498
498
497
496
496
496
496
497
497
497
497
496
495
495
494
495
495
495
494
495
496
494
492
493
493
493
494
494
494
494
494
493
493
492
492
491
491
492
492
492
492
492
491
491
491
491
491
491
492
491
492
491
490
490
489
489
490
491
492
492
492
491
490
490
489
490
490
490
490
492
491
491
489
488
487
488
489
489
491
490
490
489
488
487
488
489
489
490
490
490
489
489
489
490
491
493
496
500
505
509
511
511
510
509
509
510
510
509
509
509
511
514
516
518
520
520
521
522
521
517
515
514
515
512
511
511
509
507
504
500
497
496
495
492
492
491
488
487
489
488
488
488
486
485
485
484
484
484
485
486
485
484
484
484
484
484
484
484
485
485
484
484
484
484
483
484
485
485
486
487
486
486
485
488
489
489
488
487
486
483
490
510
538
575
616
659
706
744
771
778
742
684
614
549
515
503
496
487
471
448
427
412
399
393
397
404
410
417
423
434
446
458
469
477
484
492
496
499
502
504
505
506
506
507
508
510
511
512
513
512
512
513
514
514
514
515
516
517
519
519
519
519
520
520
521
523
524
525
524
525
526
526
526
527
529
529
531
532
534
536
536
537
538
539
540
541
544
546
549
550
551
552
554
556
558
560
564
567
570
572
575
577
580
583
586
590
594
598
603
606
609
612
615
618
621
624
627
631
633
635
636
637
638
638
638
639
639
639
638
635
631
627
622
616
611
606
601
595
590
585
579
573
568
562
558
554
551
547
543
540
535
531
528
525
523
520
519
518
517
515
514
511
509
508
509
508
508
508
508
507
506
505
505
505
504
504
504
505
506
506
504
504
504
503
503
505
505
505
505
504
504
503
503
504
504
504
506
506
506
505
505
505
506
505
505
505
506
506
506
506
505
504
504
505
504
504
505
506
506
505
504
504
504
503
503
504
504
504
504
504
503
502
502
501
502
502
503
503
502
502
501
500
500
499
498
499
501
502
502
501
499
499
499
499
498
498
499
500
500
500
498
497
498
498
497
498
498
500
499
499
499
498
497
496
497
497
498
499
498
497
496
496
496
496
497
497
497
498
498
497
497
496
495
496
496
497
496
496
496
497
496
496
495
495
495
497
497
499
501
503
504
506
510
515
517
519
521
520
519
519
518
515
515
514
517
521
525
529
530
529
529
529
526
524
522
523
525
525
522
521
519
516
511
508
506
506
506
504
502
501
497
496
494
494
494
494
495
495
494
493
493
492
492
493
492
493
493
494
493
492
491
490
490
490
492
492
493
493
492
492
492
492
491
492
493
493
493
495
496
496
494
492
490
488
495
515
545
582
622
664
709
746
771
778
743
685
617
553
520
511
503
493
477
455
434
420
410
404
407
412
417
423
429
439
452
464
476
486
494
500
505
506
508
510
512
513
515
516
517
517
517
517
518
519
520
522
523
523
523
524
524
523
523
525
526
528
529
529
530
530
530
530
530
531
533
534
535
538
539
539
539
539
541
541
543
545
549
549
550
549
549
551
552
555
558
561
563
565
567
568
570
573
576
578
582
586
589
592
595
598
601
605
609
613
617
621
625
629
632
634
636
638
640
641
643
646
648
648
648
646
645
644
642
639
636
634
629
625
620
613
606
601
595
590
585
579
576
572
566
561
556
551
546
543
541
538
536
533
531
529
526
525
522
520
519
520
519
518
516
514
514
513
513
513
513
513
513
513
512
511
510
510
510
511
512
513
513
512
511
512
511
510
511
512
512
512
513
514
513
512
511
512
511
512
513
514
514
514
514
513
512
511
512
512
512
513
514
514
514
512
511
512
511
511
512
513
512
512
512
511
512
511
510
509
510
511
511
511
511
510
509
509
508
507
508
509
509
509
509
507
507
507
507
507
509
508
508
509
508
507
506
506
507
507
507
507
507
507
506
506
506
506
505
505
507
507
506
506
506
505
504
505
505
505
506
506
505
504
503
504
504
504
504
505
507
507
507
506
505
504
504
504
505
505
504
505
505
505
504
504
504
503
503
505
506
506
505
505
505
503
503
503
503
504
504
505
506
508
508
509
512
515
517
521
524
527
527
525
523
522
522
521
521
523
526
530
534
535
535
535
535
534
532
531
530
532
532
530
528
526
523
519
517
514
513
514
513
511
511
508
506
503
502
501
503
504
503
504
503
503
501
501
502
503
502
502
503
502
502
502
500
499
499
502
502
502
502
501
501
501
501
500
501
501
501
502
503
503
505
505
503
500
499
498
507
529
561
597
635
675
716
747
769
769
730
674
611
557
535
530
523
514
500
480
462
446
433
426
425
425
429
435
439
447
460
471
481
490
497
504
508
512
515
516
518
521
522
522
522
522
523
524
526
526
528
528
529
529
529
529
529
530
531
533
535
535
536
535
534
534
536
537
537
539
541
542
543
543
542
542
543
543
545
548
551
553
553
554
555
555
557
559
560
562
564
567
568
570
572
573
574
577
581
583
587
590
594
597
599
601
604
606
610
615
620
623
626
629
631
635
637
639
641
644
647
648
650
651
648
649
648
648
647
643
640
638
633
628
622
616
611
606
600
595
591
586
581
575
570
565
561
557
554
551
548
544
540
537
534
531
530
529
529
527
525
523
522
521
521
521
519
517
516
517
518
519
520
518
516
515
516
515
515
515
516
518
518
516
514
513
514
513
515
517
517
518
518
517
516
516
516
516
517
518
517
517
516
515
517
516
516
517
517
518
519
518
518
517
517
516
517
517
516
517
518
519
519
516
516
518
519
518
517
517
518
518
517
516
515
515
516
515
515
516
517
517
517
515
514
513
514
514
513
515
515
515
515
515
513
514
515
514
514
514
515
515
515
515
515
513
511
514
514
512
512
512
512
511
511
512
512
512
513
514
512
513
513
512
511
511
511
510
511
514
514
512
511
511
511
509
509
510
512
512
512
513
512
510
508
507
509
511
511
511
511
511
512
511
510
509
508
509
511
512
511
510
511
511
510
512
515
519
521
525
528
528
528
527
526
527
528
528
528
528
528
530
532
535
538
539
539
539
539
537
535
536
537
535
532
530
529
528
528
526
522
520
519
518
515
515
512
510
510
508
509
509
509
508
507
506
507
506
506
506
507
506
506
506
505
506
507
505
505
507
509
508
507
505
505
506
505
504
506
507
508
508
507
508
509
509
509
509
508
506
505
510
525
551
584
621
661
703
738
760
770
746
696
635
578
548
543
539
533
522
501
479
461
447
434
431
432
433
438
446
451
457
469
479
488
496
502
508
513
517
520
523
524
525
524
524
525
526
527
527
528
530
530
531
531
532
533
533
534
537
537
536
535
535
536
539
539
539
538
540
542
544
544
545
545
545
546
547
549
550
551
551
552
553
554
555
557
559
561
564
566
567
568
570
571
573
577
579
580
582
584
588
591
594
596
599
603
607
611
616
621
624
626
628
632
635
639
641
643
646
648
651
652
651
652
653
653
654
654
653
650
646
641
637
631
626
623
618
614
608
602
596
590
585
580
575
571
567
564
562
558
553
549
544
540
538
536
534
534
533
530
528
527
526
525
523
521
520
521
520
521
519
518
518
517
518
518
519
520
519
518
517
517
517
517
517
517
518
519
519
520
519
518
517
518
518
517
518
519
520
520
520
519
518
518
519
519
520
520
519
518
518
517
517
517
517
518
519
520
521
520
519
519
517
517
517
518
518
518
518
519
519
519
517
517
517
518
517
517
517
517
516
515
515
516
515
516
517
517
517
516
516
516
515
514
514
515
515
515
516
515
514
513
513
514
514
514
514
515
515
516
515
515
513
512
512
513
514
514
515
514
513
514
513
513
513
512
512
513
513
513
513
511
511
511
512
512
512
513
513
512
512
511
512
512
511
511
512
512
513
513
512
511
510
510
511
512
514
513
513
513
512
513
514
516
518
520
526
529
532
534
533
532
531
531
530
530
530
531
533
535
537
539
541
541
543
543
541
538
536
536
536
536
535
533
530
529
527
525
522
521
520
517
516
515
514
512
511
510
511
511
510
508
508
508
507
508
508
509
509
508
508
508
507
505
507
507
506
507
508
509
508
507
507
506
508
508
509
511
509
508
508
508
508
509
509
508
509
507
507
517
538
569
606
644
687
733
769
793
795
753
693
626
566
538
530
524
514
498
476
456
440
428
422
425
430
436
442
448
457
469
480
490
498
506
513
518
522
524
526
526
527
529
530
531
531
533
534
533
533
535
534
535
535
535
537
537
539
539
541
541
541
541
542
542
544
545
546
546
546
547
548
548
549
549
551
554
555
555
556
557
557
559
560
562
563
565
567
569
571
572
572
574
576
577
579
583
586
589
592
595
598
600
603
608
611
615
619
623
627
631
634
637
641
644
646
650
653
656
657
658
659
661
662
662
662
661
660
659
657
653
649
644
639
634
628
623
618
612
606
600
594
589
583
579
575
570
567
563
560
557
553
549
547
545
542
539
538
537
535
533
531
531
530
529
530
529
529
528
527
526
526
526
524
524
526
525
526
526
525
524
523
523
522
522
523
525
526
527
525
524
523
523
524
523
524
525
525
525
525
526
525
525
524
524
524
524
524
526
526
524
524
524
524
524
524
527
527
527
526
525
524
524
523
523
523
524
524
524
524
523
523
523
522
521
522
523
523
523
522
521
521
520
521
520
521
522
521
522
522
521
519
519
519
519
520
520
520
520
520
518
518
519
519
518
518
519
519
519
518
518
518
518
517
517
517
518
519
519
518
517
517
517
516
516
518
519
517
518
518
517
516
516
515
516
517
517
518
518
517
516
515
515
515
516
517
518
518
517
515
515
515
515
515
515
515
515
515
516
514
513
514
514
514
513
514
514
516
515
516
518
519
520
522
526
532
535
537
537
537
535
534
534
531
530
530
532
537
541
543
543
543
543
542
541
540
539
539
539
540
536
534
532
530
528
526
524
523
522
521
518
517
515
513
513
512
513
513
512
510
510
511
510
511
510
510
510
510
509
509
508
507
507
507
507
508
510
509
509
509
509
508
508
509
509
509
511
512
511
510
510
510
511
510
509
508
507
510
526
552
586
626
667
712
754
787
804
784
731
666
598
552
536
529
520
507
486
464
445
430
419
418
425
433
438
445
452
463
475
485
495
503
510
515
519
522
526
527
527
528
528
528
528
530
531
533
534
535
535
534
535
536
537
538
539
539
539
540
541
540
540
541
542
542
543
545
546
547
548
547
547
549
551
551
553
554
554
555
557
557
557
559
561
561
563
567
570
571
572
572
573
575
577
581
585
587
590
593
596
598
601
604
607
612
616
620
624
629
632
635
637
641
643
645
650
654
656
660
661
662
662
663
663
663
663
662
660
657
654
650
645
641
636
630
624
619
613
606
599
593
588
583
579
575
571
567
564
559
554
550
548
546
543
540
539
538
537
535
533
531
530
528
528
526
527
527
526
526
525
524
524
524
524
523
524
525
525
525
524
523
523
523
521
523
525
526
527
525
524
523
522
523
524
524
524
523
523
525
525
524
523
524
525
524
525
526
525
525
525
525
525
524
524
525
525
524
524
525
525
523
523
522
522
523
524
525
525
525
523
522
522
521
522
522
522
523
522
522
521
520
518
519
520
520
521
521
520
520
519
518
519
519
519
518
518
519
519
519
519
517
516
517
518
517
517
518
519
519
518
517
516
517
516
516
517
518
517
517
516
516
516
516
516
515
515
515
515
517
517
516
515
516
516
516
516
516
517
516
515
514
514
515
515
515
516
516
516
515
515
513
513
513
515
515
515
515
515
515
515
515
514
514
514
513
513
513
513
514
514
513
513
515
515
518
521
527
531
533
535
535
534
533
530
530
529
529
529
532
535
537
539
541
542
543
543
542
539
536
535
537
537
535
533
530
529
528
524
521
520
519
518
518
518
517
516
516
514
512
510
510
510
511
511
511
510
510
511
511
510
509
510
508
508
509
509
510
509
508
508
508
509
509
510
511
511
511
512
512
511
510
510
511
512
513
512
513
510
507
514
534
565
601
637
677
717
751
773
778
743
689
629
576
551
547
541
534
521
500
479
460
447
438
436
436
442
447
450
455
464
472
483
492
500
507
514
519
522
524
525
526
527
528
530
530
530
531
532
532
534
535
533
534
534
535
537
538
538
539
538
538
539
540
540
541
543
544
545
545
545
546
546
548
547
549
552
552
553
553
554
555
555
556
559
562
565
566
568
569
570
571
572
573
575
578
582
584
586
588
591
594
596
601
605
608
613
616
619
621
625
629
632
636
639
642
646
648
651
653
654
655
655
655
658
658
659
659
657
654
650
647
643
640
636
630
625
620
615
608
601
596
589
584
580
576
572
567
563
560
556
551
547
545
543
541
540
538
536
534
531
530
528
526
526
526
527
526
526
524
523
523
522
522
523
523
524
524
523
522
521
520
520
522
523
522
523
522
521
521
521
521
522
522
522
522
522
522
522
521
521
521
520
521
522
523
523
524
523
522
523
522
521
522
522
522
523
524
523
522
522
521
521
521
521
522
521
522
521
520
520
520
520
520
520
519
521
521
521
520
518
519
518
519
519
518
519
520
518
516
515
516
517
517
517
519
520
519
517
517
517
516
516
516
517
517
516
516
516
516
516
516
514
515
516
516
516
515
516
515
514
514
514
514
515
515
515
515
514
513
513
513
512
513
513
514
515
515
514
513
513
513
513
513
514
515
516
515
514
513
512
514
514
514
514
515
515
514
513
513
513
512
513
514
514
517
520
522
524
527
530
532
534
536
536
536
538
537
533
531
531
532
535
539
543
545
546
546
545
543
540
538
537
539
539
539
537
535
532
529
527
524
523
522
522
521
521
519
517
514
513
513
513
514
513
514
514
513
512
512
511
510
510
511
511
511
511
511
512
511
510
510
511
511
512
513
514
513
512
511
511
512
513
514
515
516
517
517
514
512
510
510
523
547
579
619
660
704
748
781
802
798
751
690
622
567
542
534
526
513
494
470
451
437
426
425
430
435
440
445
450
461
473
485
495
506
514
520
522
526
528
529
531
532
534
534
535
536
536
537
537
538
539
539
539
541
542
542
543
544
544
544
544
544
547
549
548
548
549
549
550
551
551
553
554
555
557
557
559
558
558
559
560
563
565
566
567
568
569
571
572
574
576
578
580
583
585
586
588
590
593
596
600
603
607
611
614
616
620
623
627
630
634
638
641
647
650
653
655
655
658
661
664
665
667
668
668
668
666
665
663
661
658
654
651
647
641
636
629
624
617
611
607
601
596
592
587
582
576
571
567
564
560
557
555
552
549
546
543
542
541
539
538
537
536
536
535
533
531
530
531
530
530
531
530
530
530
530
529
528
526
527
528
529
529
529
528
528
528
528
527
527
528
528
529
531
530
529
529
528
527
527
529
530
530
531
531
530
529
528
529
529
529
529
530
530
530
529
528
528
528
529
528
529
528
529
529
528
527
526
525
526
527
527
528
528
527
526
525
525
525
524
526
526
526
526
526
526
525
524
523
524
523
524
524
525
524
523
522
522
522
523
523
522
523
523
523
523
522
522
522
522
522
522
524
524
523
522
522
521
521
522
521
521
523
524
523
520
520
520
520
520
521
522
523
521
521
521
521
520
519
520
520
521
521
521
521
521
520
520
520
520
519
521
522
522
522
521
520
520
520
522
524
527
530
534
538
540
541
543
543
540
540
542
542
541
540
539
541
544
548
551
552
553
553
553
552
548
546
546
548
548
546
544
541
540
536
531
529
528
527
527
527
526
522
522
521
521
519
518
518
518
519
519
518
519
519
517
517
517
517
517
518
519
519
518
517
518
518
517
516
516
517
519
519
518
518
518
517
517
518
520
520
520
519
518
517
515
522
543
571
608
651
694
737
774
800
808
774
716
649
585
550
540
533
524
507
483
462
448
436
427
431
438
443
449
455
463
476
489
499
507
515
523
528
532
534
536
536
536
537
538
539
542
542
543
543
543
544
545
545
546
547
548
549
550
550
549
549
548
550
552
553
555
556
557
557
556
556
556
557
558
561
563
564
565
565
565
564
565
568
570
573
576
577
578
578
578
579
582
585
587
589
592
595
598
599
601
605
607
610
614
618
622
627
630
633
636
639
642
646
649
652
656
659
661
665
666
667
670
671
672
673
674
675
674
672
668
665
661
658
653
648
644
639
631
626
620
615
608
601
597
592
587
584
579
574
569
566
563
559
556
554
552
551
549
545
543
542
542
540
538
538
537
537
538
536
536
536
535
535
534
533
534
535
534
533
532
532
532
532
534
534
535
535
535
534
534
534
534
534
534
535
536
536
534
534
534
534
534
533
533
535
535
534
536
534
533
532
533
534
534
535
536
536
536
535
534
534
533
533
534
535
536
535
534
533
532
532
533
534
534
532
532
533
533
531
531
528
528
529
532
534
535
533
532
530
529
529
529
528
530
530
531
532
530
528
527
527
527
528
528
530
531
531
529
527
527
526
526
527
529
529
528
527
528
527
526
526
526
526
526
527
527
527
526
526
525
525
524
525
527
527
526
527
525
524
525
525
524
524
523
524
525
524
524
525
524
524
524
523
525
525
525
523
524
525
524
523
523
523
523
525
527
527
528
528
529
532
535
539
542
544
544
542
543
541
540
538
538
540
543
546
549
552
553
553
554
553
551
549
547
547
550
550
547
545
542
538
536
534
531
533
533
531
530
529
526
524
523
521
521
521
522
522
520
519
520
519
518
518
518
519
519
519
517
517
517
517
519
519
520
520
522
520
519
520
520
519
519
519
521
522
522
522
524
525
521
520
519
516
521
540
569
603
638
679
720
753
775
787
763
712
655
595
561
555
551
544
535
515
494
477
463
450
446
446
449
454
459
465
473
484
494
503
510
517
523
528
532
534
536
538
540
540
540
539
539
541
542
543
544
546
545
546
547
548
549
546
547
550
551
551
552
552
552
552
553
554
556
557
557
557
559
559
561
562
563
563
564
565
566
567
570
571
572
572
573
574
577
579
582
584
586
587
589
593
594
597
598
600
603
606
610
614
617
619
623
626
631
635
638
643
646
648
651
653
656
659
661
662
665
668
671
672
672
672
673
672
670
668
667
665
662
657
653
645
639
634
628
623
617
612
606
601
596
591
586
581
577
574
570
568
565
562
559
556
553
551
548
547
546
545
544
542
542
541
540
539
536
536
538
539
539
539
536
535
535
537
537
536
536
536
536
537
537
536
535
534
535
537
538
537
537
537
536
536
536
535
534
535
537
538
538
537
536
536
536
536
536
537
536
538
537
536
535
535
535
535
536
536
535
535
534
534
535
533
533
534
535
534
534
535
535
534
534
534
533
533
532
532
532
533
533
533
531
530
528
529
530
533
533
533
532
531
531
531
529
530
529
528
529
530
531
530
529
528
528
528
528
528
529
529
528
527
527
526
526
526
526
527
528
528
527
527
526
527
527
526
527
527
526
527
528
527
527
526
525
524
524
524
526
526
527
527
525
525
524
524
525
526
527
526
526
525
524
523
524
525
525
526
527
529
531
533
535
538
540
542
544
545
545
546
546
545
542
541
540
544
548
552
555
556
556
556
556
552
549
549
549
551
549
548
547
543
539
537
534
532
532
533
532
532
530
527
524
523
523
522
522
524
524
522
522
521
519
520
520
520
521
520
520
520
519
519
519
519
519
520
520
521
521
521
520
520
520
520
520
520
521
521
522
524
524
522
521
519
515
522
541
569
605
644
683
723
757
780
792
765
712
652
593
559
552
547
539
527
505
486
469
456
446
443
445
446
449
455
461
470
481
494
504
513
520
524
527
531
533
535
537
540
540
540
542
541
542
542
543
544
544
546
548
549
550
549
548
549
550
551
552
553
553
554
556
556
555
555
556
557
558
559
560
561
562
563
563
564
566
567
568
570
572
572
574
575
575
576
578
581
582
585
587
589
591
593
594
597
600
603
606
610
614
618
620
623
626
630
634
637
641
646
650
652
654
656
658
660
663
665
667
669
670
671
671
671
670
667
666
663
659
656
652
648
642
636
631
624
618
614
608
604
599
595
590
586
581
577
573
570
567
564
561
558
556
554
552
550
548
546
546
545
545
544
541
541
539
538
538
538
538
538
539
538
538
537
537
536
536
537
537
538
539
539
537
536
536
535
536
536
537
538
538
537
537
537
537
537
536
537
537
538
539
538
536
537
537
537
537
537
538
537
538
538
537
537
537
536
536
535
536
536
536
537
536
535
534
534
534
534
535
536
536
536
534
533
533
533
532
532
532
533
534
535
533
532
532
531
532
532
533
533
532
533
533
533
532
531
531
531
532
532
532
533
532
530
530
530
530
531
532
532
532
532
531
530
530
529
529
529
530
530
530
530
530
530
529
529
530
530
531
531
531
531
530
528
529
529
529
529
530
531
530
529
529
529
529
529
529
530
530
530
531
531
530
529
529
528
529
532
535
536
538
541
545
547
549
550
551
550
551
553
553
549
548
548
550
553
556
560
562
563
563
562
559
555
555
556
557
557
556
555
554
550
546
541
539
538
538
537
537
535
534
531
529
528
528
528
529
529
529
529
529
529
525
524
524
525
526
528
528
528
528
527
526
527
526
526
525
526
527
528
528
528
528
527
527
528
529
529
531
533
531
529
528
526
526
538
563
597
637
677
722
766
798
820
813
763
700
631
578
556
548
539
528
506
482
463
450
441
439
444
450
456
461
467
478
490
502
513
524
532
536
540
543
545
547
546
548
549
550
552
551
552
553
552
553
554
554
556
558
558
558
558
558
559
560
560
560
562
563
564
564
565
566
566
566
566
567
569
571
572
573
573
573
574
575
576
577
580
581
583
584
584
587
588
590
591
593
595
598
601
603
605
607
609
612
614
618
623
627
629
633
636
640
644
647
651
654
658
662
664
668
671
672
674
676
679
682
683
684
685
685
685
682
680
677
674
670
667
663
658
653
647
640
633
627
623
617
613
608
603
598
593
588
584
579
576
573
570
568
566
563
561
558
556
555
554
553
552
551
551
550
548
546
546
546
546
546
546
546
545
545
544
543
543
543
543
544
544
545
545
546
546
544
545
544
544
545
545
546
546
546
545
545
545
546
546
546
547
547
546
546
546
546
547
547
546
545
546
546
546
545
545
545
544
543
544
544
545
545
546
545
544
543
542
542
542
544
544
544
543
543
542
542
541
541
541
541
543
543
542
542
542
541
540
540
541
540
540
541
541
541
540
540
540
539
538
538
540
541
542
540
539
538
537
538
538
539
540
540
540
539
537
536
537
537
536
537
538
539
538
537
537
535
536
537
537
536
537
538
537
536
537
537
536
536
536
536
537
537
537
537
536
535
535
535
536
535
537
537
535
536
536
535
535
535
535
536
536
535
535
536
535
534
535
537
539
541
544
549
552
552
554
557
556
554
554
555
555
553
553
554
556
560
562
565
565
567
567
566
563
561
560
560
560
559
559
557
553
550
546
544
543
542
541
540
540
538
537
535
534
534
533
531
530
530
531
531
533
534
531
531
531
530
529
529
531
531
531
531
531
531
531
529
530
530
531
531
531
533
533
533
532
531
531
532
534
534
533
533
531
529
537
556
586
622
662
703
747
781
806
814
778
721
656
598
569
562
554
547
533
510
490
473
459
450
451
455
458
464
470
477
487
499
509
517
525
533
540
544
544
545
546
547
549
551
552
553
553
555
555
555
556
557
557
558
558
559
560
560
560
560
560
561
562
562
562
564
566
567
567
568
569
569
568
570
572
574
575
575
576
578
578
578
580
581
584
585
587
589
589
590
590
591
594
597
599
603
605
607
609
611
613
616
619
623
626
630
635
639
643
646
648
651
655
659
662
665
669
672
673
675
676
678
680
681
681
683
683
683
682
678
674
672
667
662
657
653
649
643
637
630
624
618
611
605
602
598
595
590
586
583
578
575
571
567
565
563
560
558
557
557
554
552
551
551
549
548
547
548
547
547
545
545
544
544
545
544
545
544
543
542
543
543
544
544
543
544
544
544
543
544
543
543
544
544
544
545
546
545
544
544
545
545
545
545
545
546
545
544
545
544
542
543
544
546
545
546
546
545
545
543
542
544
543
544
544
546
547
547
545
544
543
543
543
542
543
543
544
544
542
542
543
542
540
540
541
542
542
541
540
540
541
541
540
540
541
540
541
541
540
540
539
537
537
538
539
540
541
542
540
539
538
538
538
538
539
538
539
538
538
537
537
536
535
536
538
540
537
538
538
535
536
536
536
537
536
537
537
536
535
536
536
536
536
537
537
537
536
536
536
536
534
536
535
536
536
536
536
536
537
536
536
537
539
541
544
548
553
554
554
555
554
554
551
551
550
552
553
555
557
560
562
564
564
564
566
565
561
559
558
558
557
558
557
555
553
552
549
545
546
544
543
542
540
538
536
534
535
536
535
531
531
532
531
533
535
536
534
534
532
531
530
528
528
531
532
532
532
533
532
531
531
531
532
531
530
531
531
531
532
532
532
533
535
535
533
534
531
528
535
554
583
618
656
696
735
768
789
794
763
712
653
597
570
566
563
557
543
519
498
480
469
459
458
459
461
466
472
478
484
493
504
512
522
531
535
539
543
545
546
549
548
548
548
549
551
554
555
554
553
554
555
555
556
557
559
561
561
559
559
559
561
563
563
564
565
566
567
567
568
568
570
570
570
572
574
575
576
575
575
577
578
580
581
582
584
586
588
590
592
592
592
594
596
600
604
606
608
610
612
616
619
623
626
630
635
638
641
645
647
650
655
659
662
666
669
671
673
676
677
678
677
680
681
681
681
680
679
676
673
668
664
660
656
651
645
641
636
628
621
615
609
605
601
598
593
588
584
580
577
574
570
567
564
562
559
558
556
554
551
550
549
547
547
548
549
549
547
545
544
544
543
543
544
544
544
544
542
542
541
541
542
542
541
542
542
543
544
542
542
541
541
541
543
542
543
543
543
543
542
542
542
541
542
544
544
545
544
541
542
542
541
541
542
544
544
543
543
542
541
541
540
542
542
542
542
542
542
543
541
539
540
540
539
540
540
540
539
539
539
540
539
537
538
539
540
539
539
538
537
537
537
537
538
539
539
538
538
537
536
535
535
536
537
537
537
537
537
537
536
535
535
536
536
537
538
538
537
537
536
536
536
536
536
536
536
537
536
535
535
535
536
536
536
536
536
536
536
535
535
535
534
535
536
536
536
535
536
534
534
534
535
535
535
536
536
536
535
534
534
533
533
535
536
538
539
541
544
545
549
551
553
555
555
556
556
556
555
553
553
552
554
558
561
566
567
568
567
567
564
561
561
560
560
561
561
560
557
554
550
547
545
544
545
543
541
540
539
536
534
534
534
534
534
533
534
534
533
531
531
530
530
531
533
534
533
532
531
531
531
530
531
531
532
533
533
534
534
533
533
532
532
533
534
536
537
537
537
536
534
533
532
544
568
599
638
678
721
763
798
822
820
778
718
648
591
565
555
547
535
514
490
471
458
448
444
450
454
459
465
472
482
495
507
516
525
533
539
543
546
548
550
551
552
554
555
555
555
555
556
557
559
559
560
561
561
561
562
562
562
564
565
565
565
567
568
567
567
569
568
568
570
572
573
574
575
576
576
576
577
579
579
581
584
585
586
587
587
588
590
591
593
595
597
600
603
605
607
608
609
612
616
618
623
627
631
633
636
639
643
646
649
654
658
663
667
670
672
676
679
682
683
685
688
689
690
691
690
689
687
687
685
682
680
676
671
665
660
653
647
641
634
629
624
619
614
609
603
598
593
589
586
583
580
577
574
571
568
567
564
562
561
559
559
557
556
555
554
553
552
551
552
551
552
552
551
551
550
550
549
549
549
550
551
551
551
550
550
550
549
549
550
550
551
551
550
550
550
550
549
550
550
550
551
551
551
551
550
549
550
549
550
551
551
552
551
551
550
549
549
548
548
549
550
551
551
550
549
548
548
548
549
549
549
550
549
548
548
546
547
547
547
547
548
549
548
547
546
545
545
544
546
546
546
546
546
546
545
544
544
544
544
546
546
545
546
545
544
544
544
543
543
544
544
544
546
544
543
543
543
543
543
543
544
545
544
544
543
543
542
542
543
544
544
544
543
543
543
542
543
543
542
541
543
543
543
543
542
542
542
542
542
542
543
543
543
543
542
542
542
543
542
543
544
543
542
542
542
542
542
542
542
543
543
544
546
547
548
550
552
556
561
564
565
566
565
564
562
561
559
559
560
563
566
569
572
572
573
572
571
570
568
567
568
569
569
566
562
559
558
556
554
552
552
552
550
548
546
544
542
541
542
540
541
541
539
539
539
538
537
538
539
540
540
539
538
538
537
537
538
538
538
539
539
538
538
538
538
538
539
540
540
540
541
540
540
540
541
541
540
539
538
537
542
560
586
621
660
702
746
786
816
831
806
752
688
621
579
565
558
550
537
514
492
475
462
453
454
458
463
468
475
484
496
507
518
525
532
540
545
550
553
554
556
557
558
558
558
559
559
559
561
563
563
564
565
565
564
565
566
566
566
568
569
570
570
570
569
569
571
572
573
574
577
578
579
578
579
579
579
580
582
584
586
587
586
587
588
589
592
593
596
599
600
601
603
604
606
608
609
611
615
619
622
626
628
629
634
637
640
643
647
651
655
661
665
668
670
672
675
677
680
684
686
689
691
691
690
692
692
692
691
689
687
683
680
675
670
665
660
654
650
644
638
632
626
620
614
607
602
598
596
592
587
584
581
578
573
571
569
568
567
567
563
562
560
558
556
554
553
555
555
555
554
555
553
551
550
551
552
552
551
552
551
551
551
552
551
550
552
552
551
551
550
551
552
551
551
551
551
551
552
553
553
554
553
551
550
549
550
551
552
553
553
554
552
551
551
550
550
551
553
553
553
552
551
551
552
552
553
552
552
551
551
551
549
550
549
548
550
550
550
551
551
549
547
547
547
548
549
548
549
550
549
546
545
545
545
546
547
547
547
547
547
547
546
546
546
546
546
546
546
546
545
545
545
545
546
544
545
546
545
545
547
546
545
545
544
544
544
544
546
546
545
544
544
542
542
542
542
543
544
544
543
543
543
543
543
542
543
544
545
544
544
543
542
541
541
541
543
542
543
544
544
544
544
543
542
543
542
543
543
544
544
544
545
547
549
552
554
557
560
562
563
561
560
558
557
557
557
560
562
566
567
569
570
571
570
568
567
566
565
567
568
567
564
562
559
557
555
552
549
551
551
549
546
544
543
542
542
541
541
540
540
539
539
539
538
538
539
539
538
538
538
537
536
537
538
539
539
539
537
536
538
539
540
539
538
539
538
539
539
539
538
539
540
543
544
543
542
540
537
542
558
585
620
656
697
736
770
793
805
782
733
675
617
584
578
573
566
556
536
513
495
479
469
465
465
468
472
480
485
492
501
510
521
529
534
540
545
549
553
555
556
556
556
556
557
558
559
561
562
562
563
562
561
562
564
565
565
567
568
567
567
568
568
569
570
570
572
573
573
574
576
576
577
577
577
578
580
583
584
585
585
585
585
587
589
590
591
593
594
595
598
599
600
602
604
607
610
613
617
621
623
624
625
629
633
637
641
646
650
653
657
659
662
666
670
672
674
678
682
684
685
686
687
688
688
688
687
687
686
684
679
675
672
666
661
656
650
644
640
635
629
623
617
611
606
602
598
594
591
587
583
579
576
574
571
570
569
567
565
563
562
559
559
556
556
557
557
556
555
555
553
552
552
551
550
550
552
552
553
552
551
551
550
549
549
550
551
552
553
552
551
551
551
551
551
551
552
553
553
553
552
551
551
550
551
552
552
553
553
553
553
552
551
550
551
551
551
552
553
552
552
551
550
550
550
550
550
550
551
551
551
549
549
549
548
549
550
550
550
550
549
547
547
547
547
548
549
549
548
548
547
547
547
547
547
547
547
548
548
549
548
546
546
545
545
546
547
548
548
546
545
545
545
545
544
544
545
545
545
545
546
544
543
544
544
544
544
544
545
544
544
543
542
542
542
544
545
544
544
544
544
543
543
543
543
543
545
544
544
544
543
541
541
541
543
544
544
544
545
544
543
542
541
542
541
541
543
544
544
543
542
544
545
546
550
553
557
561
564
566
565
564
562
563
564
563
561
562
564
566
569
571
573
573
573
572
572
570
569
568
568
568
567
566
563
561
559
556
553
552
551
549
548
547
546
544
542
542
542
541
540
540
538
538
538
539
539
539
539
538
538
537
537
536
536
537
537
538
538
537
536
536
537
536
537
538
538
539
538
538
538
538
539
540
541
541
539
537
536
536
546
570
600
641
682
726
771
808
832
829
782
721
651
594
567
559
550
539
520
495
476
462
450
447
452
458
465
471
477
488
500
512
522
530
537
545
550
553
554
556
558
557
557
558
559
560
561
562
562
562
563
562
564
565
565
567
568
568
568
568
568
568
569
571
571
571
572
574
575
576
576
576
576
577
579
581
581
582
583
584
585
585
586
589
591
592
595
597
598
599
601
601
603
605
606
609
612
614
617
620
622
625
628
631
635
640
644
648
651
654
657
660
663
666
670
674
677
681
684
686
687
688
690
692
692
693
694
694
692
689
686
682
678
674
670
664
659
654
648
641
634
629
623
618
614
610
606
601
597
590
586
583
579
576
574
571
570
570
568
565
561
559
560
561
559
558
558
559
558
557
555
554
554
555
554
554
555
555
555
554
552
552
553
553
554
554
555
555
555
555
554
553
553
554
554
555
555
555
556
554
554
553
554
556
556
556
557
556
555
554
554
554
554
553
554
555
556
555
554
553
552
551
551
552
552
553
553
553
551
549
551
552
551
550
551
551
551
550
551
551
550
550
548
549
549
549
550
549
550
548
548
548
548
546
547
548
549
547
547
547
548
547
547
546
547
547
548
547
547
546
546
545
544
545
544
545
545
545
545
544
544
545
544
545
545
546
545
544
545
544
543
543
543
543
544
545
545
545
544
544
543
543
542
543
544
544
545
545
544
545
544
543
542
543
544
545
544
544
543
543
542
543
544
543
543
544
544
545
546
546
548
550
552
555
559
561
563
563
563
561
560
561
559
559
560
563
568
572
573
573
572
573
573
573
570
568
567
568
569
567
566
564
561
559
556
553
553
552
550
548
547
546
544
543
542
542
542
541
540
539
538
539
538
538
538
539
540
539
537
538
537
537
537
539
538
537
537
538
538
538
537
538
539
539
541
540
540
540
539
539
540
541
541
541
541
540
542
557
581
613
650
690
732
770
797
815
800
749
690
628
586
575
570
564
553
533
511
493
479
465
461
463
466
471
478
483
491
501
510
519
527
534
540
545
549
553
556
556
557
557
558
559
559
558
560
561
562
565
565
563
563
563
563
565
566
565
568
569
568
568
568
570
571
573
575
576
576
577
579
579
577
577
577
579
581
583
584
585
586
589
589
590
592
595
597
598
600
600
602
604
604
605
609
612
616
618
621
624
626
629
631
634
640
645
650
652
655
658
660
665
669
671
675
678
680
682
685
687
689
689
690
691
691
691
689
688
687
685
680
673
669
666
660
653
649
644
637
632
625
619
613
608
603
598
594
592
589
585
581
576
572
569
569
568
566
563
562
561
558
557
556
553
552
553
553
553
552
551
550
550
549
549
549
549
549
549
550
550
549
548
547
547
548
550
551
550
549
548
548
547
548
547
547
548
548
549
550
550
548
548
550
550
550
549
551
550
550
549
549
548
547
546
546
548
550
550
549
550
550
550
549
549
548
548
548
548
549
550
549
548
549
548
547
546
545
545
544
544
546
547
548
548
548
547
548
548
545
544
545
544
543
543
543
545
547
548
547
545
543
543
543
542
542
544
544
544
543
542
543
543
542
543
543
543
543
542
542
543
542
541
540
539
541
542
543
543
542
541
540
539
540
540
539
540
540
541
542
542
540
539
540
540
540
540
540
540
538
537
538
540
539
539
539
539
541
542
541
542
544
547
550
553
556
558
559
559
558
557
558
556
554
553
555
558
562
567
568
568
568
568
568
566
563
563
563
563
562
561
560
557
554
552
549
549
548
547
544
544
542
539
537
536
536
538
538
537
537
536
535
535
535
536
536
536
536
536
534
533
533
533
532
534
535
535
536
536
535
535
534
533
534
536
536
537
538
537
536
537
538
537
537
536
534
536
548
571
603
640
679
720
759
785
803
796
750
695
634
587
571
567
560
551
534
513
494
479
467
461
459
460
464
470
476
483
493
504
513
523
530
536
541
545
548
551
553
554
553
553
553
554
555
556
558
560
561
560
561
561
560
561
562
563
564
565
566
567
566
566
566
567
568
569
570
572
573
574
572
574
575
576
577
579
580
581
582
583
584
585
584
585
588
590
592
595
596
597
598
600
602
604
607
609
611
615
619
621
624
628
630
635
639
642
647
650
653
657
659
661
664
668
671
673
677
681
684
684
684
683
684
685
685
685
683
681
679
675
669
664
659
654
649
644
638
633
628
623
617
612
607
602
598
594
590
587
583
580
575
572
569
567
566
564
563
562
561
559
557
556
554
553
553
553
554
554
553
552
551
550
550
549
550
550
550
550
550
549
549
549
549
550
550
551
551
551
551
551
549
549
550
550
550
550
551
551
550
550
550
550
551
550
550
551
552
552
552
550
550
549
550
550
549
550
551
551
551
551
550
550
549
549
549
550
551
551
549
548
548
548
547
547
548
549
549
550
551
548
547
547
547
548
547
547
548
547
547
547
545
545
544
545
547
546
546
547
546
545
544
544
544
544
544
545
545
545
544
543
543
542
542
543
543
543
544
546
545
541
542
541
542
542
542
542
543
543
543
542
541
542
541
542
542
543
544
543
542
542
541
542
542
541
541
542
542
543
542
541
541
540
539
540
540
541
541
542
543
543
544
547
549
551
555
558
562
563
563
561
560
560
558
557
558
558
561
565
567
569
571
571
570
569
567
565
565
566
566
564
562
559
556
556
553
551
549
548
547
545
544
542
540
538
538
538
539
538
538
536
536
535
535
535
535
536
536
535
535
534
533
532
534
535
535
536
536
535
534
534
533
533
533
533
535
536
536
536
536
536
537
537
535
534
534
533
537
553
578
611
651
693
736
778
810
827
809
755
690
621
576
561
553
545
533
511
488
471
458
448
447
454
458
464
470
478
489
501
512
520
528
535
541
544
547
550
552
554
554
555
555
555
557
557
558
558
561
562
562
561
561
561
561
562
564
564
566
566
566
567
567
567
568
569
570
572
573
573
574
574
574
575
576
578
579
581
582
583
584
585
586
587
589
590
593
595
595
597
598
600
602
605
607
610
613
617
620
622
624
627
631
634
637
642
646
651
656
659
661
664
668
671
674
676
680
684
687
689
689
690
690
691
691
691
690
689
688
684
678
674
669
664
657
652
648
643
637
632
625
620
613
607
603
599
595
591
587
584
579
575
572
570
568
567
565
565
563
561
559
557
555
555
554
553
555
555
553
553
553
551
551
551
552
552
552
551
552
553
551
549
549
549
550
549
551
551
551
551
551
550
550
550
552
553
553
552
552
552
552
551
550
550
550
551
552
552
553
552
550
550
551
550
550
552
553
553
552
552
551
551
550
549
549
550
550
550
549
549
549
548
549
549
549
549
549
551
549
548
547
547
547
547
546
544
544
547
547
546
545
544
544
544
544
546
547
545
545
545
545
545
544
543
543
543
544
544
544
544
543
542
542
542
543
543
544
545
543
542
542
541
541
540
542
542
543
543
541
542
541
540
540
540
539
542
543
542
542
541
540
540
540
540
539
538
539
541
541
540
539
538
538
539
539
541
542
540
540
539
539
540
539
539
540
540
542
543
545
547
548
552
555
556
559
560
560
559
559
558
556
555
554
556
560
564
567
570
570
570
568
566
563
562
562
564
564
561
559
558
556
554
551
548
547
547
548
547
545
543
540
538
537
537
537
537
538
538
537
536
534
533
534
535
536
537
537
536
536
536
535
534
533
533
535
536
536
536
536
535
534
534
536
537
536
537
539
540
541
540
539
539
537
533
537
554
581
614
649
690
731
769
796
813
793
742
683
622
583
572
566
557
545
525
503
485
472
462
457
458
464
468
473
478
488
499
510
520
527
533
538
543
546
549
552
554
554
556
557
557
556
557
556
558
558
560
562
563
562
563
563
563
563
564
564
566
568
568
568
568
568
568
569
571
572
573
574
575
575
575
575
577
579
580
582
584
585
586
587
588
589
590
591
593
595
597
599
600
601
604
606
608
611
614
616
620
624
626
629
633
636
638
642
647
652
657
661
664
667
670
672
675
676
679
683
686
687
690
691
690
689
687
686
684
684
682
679
675
670
663
657
651
644
638
633
630
624
618
612
607
602
596
591
588
585
581
578
575
572
569
566
562
560
560
560
559
558
556
553
552
552
552
549
548
549
549
549
548
546
547
547
546
545
545
546
547
547
548
547
547
546
544
544
544
543
545
546
547
546
545
545
544
543
544
547
548
547
547
547
548
547
547
546
545
546
547
548
548
548
548
548
547
547
546
547
548
550
550
546
545
545
545
545
546
546
546
546
546
546
546
545
544
543
546
547
547
546
544
545
546
545
544
543
544
545
545
543
543
542
542
544
544
544
542
543
544
544
543
542
542
542
539
539
541
541
543
542
543
542
541
541
540
540
540
541
542
541
541
540
538
539
540
540
540
541
542
542
543
542
538
539
539
537
538
540
540
540
540
538
537
539
540
542
545
547
550
554
556
557
557
558
558
557
558
559
557
555
555
556
559
563
567
567
568
569
569
569
565
565
564
564
563
561
559
558
557
554
550
546
546
546
545
544
542
540
539
538
537
538
536
535
535
536
536
536
536
535
535
534
533
533
534
534
533
535
534
536
536
535
535
535
534
534
535
535
536
536
537
536
535
536
535
536
538
539
540
539
536
534
542
562
590
624
662
704
745
777
798
802
767
714
653
599
574
570
566
557
542
518
498
481
466
457
457
459
463
469
474
479
487
498
509
518
527
534
540
544
548
549
550
551
553
554
555
557
557
557
557
556
557
558
558
560
561
562
564
564
565
565
564
565
565
566
567
568
569
570
570
571
570
571
573
575
576
577
578
578
578
580
581
580
583
584
586
587
589
591
591
592
594
596
597
600
603
605
607
610
613
615
617
620
624
628
632
637
640
643
647
650
653
657
660
663
668
671
675
678
680
681
683
685
687
688
689
689
689
687
684
682
679
675
671
666
662
657
652
645
638
631
626
622
617
613
608
603
598
594
590
586
582
578
576
574
572
570
567
564
563
561
559
558
556
556
555
555
555
553
553
551
551
549
550
550
551
551
550
550
549
550
549
548
549
549
548
549
549
549
549
549
549
548
548
548
549
549
549
550
550
549
549
549
549
550
550
551
551
551
550
549
549
549
550
550
550
551
551
550
549
550
550
549
549
549
550
551
550
549
549
548
548
547
547
548
549
549
548
547
548
547
547
545
546
547
548
548
548
547
545
545
544
545
547
546
546
546
545
545
544
544
544
543
543
544
546
546
545
545
544
542
542
543
542
542
543
543
544
544
542
542
542
542
542
542
542
544
543
542
541
541
540
541
542
543
542
542
543
542
541
541
540
541
541
542
543
544
543
542
542
540
540
541
541
542
543
543
542
541
542
542
543
545
548
551
553
557
560
562
563
563
562
561
562
563
561
559
561
561
564
568
569
571
572
573
573
572
569
566
566
566
566
564
564
562
560
558
553
550
548
549
547
546
545
544
542
541
540
539
537
537
537
537
537
537
539
539
538
537
536
536
536
535
535
536
537
537
536
535
536
535
534
535
536
538
538
539
538
538
537
536
536
539
540
541
541
538
536
533
541
560
589
627
668
712
756
795
822
832
799
740
670
606
571
557
550
540
522
497
476
460
448
444
448
457
463
469
474
482
493
505
516
526
534
541
546
550
551
552
553
555
555
556
557
559
560
560
560
561
560
560
561
563
564
565
565
566
565
566
566
567
567
566
569
571
572
573
573
572
573
574
576
577
578
580
580
580
580
580
581
583
585
586
588
590
592
592
594
595
596
597
601
603
605
607
610
612
614
617
620
622
624
627
634
639
642
646
648
652
656
661
664
668
672
676
680
682
684
686
688
691
694
694
695
696
696
696
695
692
689
686
681
677
673
668
662
655
649
643
637
631
625
620
614
610
607
602
596
591
586
583
580
576
575
572
570
567
565
564
563
561
559
559
559
557
555
555
555
552
551
551
552
551
551
552
553
553
551
549
549
550
550
551
551
552
551
550
550
550
550
550
551
551
551
552
552
552
551
549
548
548
549
551
552
552
553
552
550
550
551
550
550
550
551
552
551
552
550
549
550
548
549
550
551
552
552
552
550
549
549
548
548
547
548
550
549
548
547
546
546
545
546
546
546
546
547
548
547
546
545
544
544
545
546
547
546
546
545
544
544
543
544
544
544
544
544
544
544
543
543
544
542
540
542
542
542
542
542
542
542
541
541
541
541
541
542
541
541
541
541
541
541
541
543
543
542
541
539
539
539
540
540
540
542
541
542
541
541
540
540
539
540
540
542
541
541
541
541
541
540
541
541
541
541
543
543
543
545
545
548
553
556
559
560
561
560
559
559
557
556
556
557
561
565
568
570
570
570
570
570
569
565
565
567
567
566
565
562
559
557
554
552
551
551
550
548
546
544
542
539
538
538
540
540
538
538
537
537
537
537
537
537
536
537
539
539
537
535
534
534
535
535
536
537
537
537
537
535
534
535
536
537
539
538
538
537
538
541
541
541
540
537
538
549
570
601
635
672
713
756
789
810
812
771
715
650
596
573
566
560
550
534
511
492
476
462
454
455
459
463
469
476
484
495
505
515
523
529
535
540
544
548
549
552
553
554
555
555
555
556
557
556
558
559
558
560
560
561
561
562
564
564
566
565
565
566
566
566
567
569
570
570
571
571
571
574
575
574
575
578
580
578
578
579
582
584
584
585
586
588
589
591
595
597
598
599
601
603
604
607
609
612
615
618
621
624
628
631
635
639
642
645
650
655
660
662
663
667
669
672
676
679
682
685
685
687
688
690
691
690
689
689
687
685
683
678
672
666
661
657
652
646
640
633
627
623
617
610
605
601
597
592
588
585
582
579
575
572
570
566
564
562
562
560
558
556
553
552
552
553
551
550
550
549
550
549
549
547
546
547
546
547
548
548
549
549
548
546
545
546
547
547
548
547
546
546
546
547
547
547
549
548
548
548
549
548
548
549
549
547
548
548
548
547
548
548
548
547
546
546
547
548
549
549
548
548
548
547
546
545
546
547
548
549
549
548
547
547
546
545
546
548
549
548
545
544
544
544
545
546
545
543
542
543
543
543
544
543
544
543
543
544
543
543
544
543
542
542
540
540
541
543
544
544
543
542
541
541
540
541
542
542
542
543
543
542
538
538
540
540
542
542
542
541
540
540
541
539
539
540
539
539
541
541
540
539
539
539
539
538
538
539
540
540
541
540
541
539
538
538
537
537
540
542
541
541
542
542
543
546
550
554
556
556
557
557
556
554
554
555
553
554
555
560
564
564
566
567
569
569
568
566
565
565
565
564
562
560
559
558
554
553
552
550
548
547
545
543
542
540
538
537
538
538
539
537
537
535
535
534
536
537
538
538
536
535
534
533
534
534
535
535
535
536
537
536
535
533
534
536
536
534
535
536
535
536
536
536
539
540
537
537
535
532
538
556
585
619
654
693
734
769
793
804
776
725
667
609
578
573
569
561
549
527
506
488
474
464
460
461
462
467
473
479
486
496
506
515
524
531
538
542
545
549
550
550
550
551
552
554
555
557
558
559
558
559
559
559
560
560
560
563
565
565
564
564
564
564
565
567
569
569
569
571
571
572
573
572
572
574
575
576
580
580
579
579
580
581
583
585
587
588
590
592
593
595
596
596
599
601
605
609
611
614
616
617
620
624
626
630
632
637
643
648
650
652
655
659
663
667
671
673
677
680
683
683
684
685
685
686
687
688
687
686
683
680
677
672
668
663
657
652
647
641
635
628
622
617
611
607
603
599
595
589
585
581
578
575
571
570
568
566
564
563
561
558
556
554
554
554
553
554
553
552
550
549
548
548
549
547
548
548
550
548
548
548
547
547
547
547
548
548
548
547
547
546
545
545
547
546
548
548
548
548
548
548
547
546
547
547
548
549
549
549
548
547
547
547
547
548
549
550
549
548
547
547
547
547
547
547
548
549
549
548
547
547
547
546
547
547
547
547
547
546
545
544
544
545
545
545
544
544
545
544
546
544
544
544
544
544
544
545
545
544
543
543
541
541
541
542
543
543
543
542
542
541
540
540
541
541
543
543
542
542
542
540
540
541
541
542
542
542
541
541
540
539
540
540
540
541
541
541
541
542
541
541
540
540
541
541
541
542
542
541
541
540
540
539
539
541
541
542
541
539
539
539
541
542
544
547
550
553
557
560
560
561
560
560
561
562
561
559
559
559
561
566
569
572
572
572
572
572
569
567
566
566
567
565
565
563
561
559
555
551
549
548
547
546
545
545
543
542
541
540
540
539
538
538
537
538
538
538
537
537
536
535
535
536
537
537
537
538
538
536
536
535
536
535
536
536
536
536
538
538
537
537
538
538
540
540
541
541
540
537
536
546
568
599
637
678
723
768
805
828
829
788
729
658
597
568
560
552
540
521
497
476
461
450
446
451
458
464
469
475
484
495
508
519
529
537
544
547
550
552
554
555
555
557
557
559
559
560
561
560
561
563
562
563
565
566
566
567
568
569
570
569
569
569
570
571
573
575
575
574
574
575
576
578
580
580
581
581
582
582
583
584
584
586
588
590
592
592
594
596
596
596
598
600
602
605
607
611
614
616
617
620
624
628
631
634
638
642
645
649
653
655
660
665
668
672
676
680
682
685
687
690
691
692
695
697
698
697
696
694
692
690
687
684
680
675
672
666
659
653
646
641
634
629
624
620
616
610
604
599
595
591
587
585
581
579
576
574
572
569
566
564
563
562
562
562
561
560
559
557
556
556
556
557
556
556
556
555
553
553
554
555
554
553
554
554
554
554
553
554
553
553
553
554
554
555
555
556
554
554
554
553
554
554
554
555
556
556
555
555
554
554
553
554
555
555
556
555
555
555
554
554
553
553
554
554
554
555
554
553
553
552
552
552
553
553
553
553
552
550
550
550
550
551
551
552
552
550
550
550
551
550
548
547
548
549
549
549
547
547
547
548
547
547
548
548
547
548
547
546
546
545
545
547
548
548
547
547
546
545
545
546
546
546
548
548
547
547
546
546
545
545
546
548
547
547
547
546
546
545
544
544
544
546
546
545
545
545
544
544
544
544
544
545
546
546
546
545
544
544
544
544
545
548
550
553
555
559
561
564
565
563
564
564
564
565
563
562
562
564
568
570
572
574
576
576
576
574
571
569
569
569
568
568
567
567
565
560
555
552
550
550
549
549
549
548
545
543
541
540
540
540
541
539
538
539
541
541
541
540
540
539
539
539
540
539
539
538
539
538
537
538
538
539
540
539
539
539
539
538
539
540
540
543
546
545
544
544
542
539
541
558
584
618
657
698
741
781
810
824
803
751
690
624
582
569
562
552
540
519
497
481
467
456
455
460
465
471
475
481
491
503
514
525
533
540
545
550
552
554
554
556
557
559
561
563
561
561
561
560
560
561
563
564
566
566
567
569
568
568
570
569
569
571
572
573
574
573
572
573
575
576
576
579
581
582
583
583
584
584
585
587
588
590
593
594
595
594
596
597
599
602
604
607
609
609
611
614
615
616
619
622
626
630
634
638
641
644
647
651
655
660
662
667
670
673
676
680
682
685
688
691
693
695
696
696
696
696
697
696
693
690
689
685
680
675
669
661
654
649
644
638
632
626
622
619
613
606
602
597
592
589
586
584
581
578
575
574
572
568
566
564
564
564
563
562
560
558
557
556
555
556
557
555
556
557
556
554
553
553
553
554
554
554
555
555
555
554
554
553
553
553
554
555
554
553
553
554
554
553
554
556
555
556
556
557
556
555
554
555
555
554
554
555
556
555
556
555
555
556
555
555
556
557
557
556
555
553
553
555
555
554
554
555
556
555
553
553
553
552
553
553
554
554
553
553
552
553
552
552
552
551
550
551
552
552
552
550
550
549
549
549
550
553
552
552
551
549
547
546
548
548
548
547
549
551
549
548
549
549
548
547
547
546
546
548
548
549
549
547
547
547
549
550
551
550
549
547
546
547
549
548
547
547
548
548
549
548
547
547
547
548
548
547
547
548
547
546
545
545
544
546
548
551
556
556
556
559
560
561
565
565
564
563
564
564
562
562
564
566
569
572
575
576
577
577
576
572
569
569
570
569
568
568
568
567
565
562
557
554
552
552
553
553
549
546
544
544
544
544
543
542
543
543
544
543
542
542
541
541
542
543
542
542
542
543
541
540
540
540
540
541
542
542
543
544
544
544
543
543
543
541
542
545
545
544
543
543
542
539
549
570
598
632
671
711
751
780
798
805
772
721
664
610
585
582
579
572
558
534
512
494
482
473
471
471
472
476
481
486
494
505
518
527
533
539
544
549
552
555
557
558
561
561
561
561
562
564
565
564
565
566
566
566
568
570
571
570
569
569
571
571
573
574
574
575
576
576
577
578
579
579
580
581
582
582
582
582
584
585
587
587
589
591
591
592
593
595
595
596
598
601
604
605
608
610
611
614
616
618
620
622
627
631
635
638
641
644
647
651
655
659
663
668
670
673
676
679
681
684
687
690
692
694
694
694
694
694
693
691
689
687
685
683
677
672
665
659
652
647
643
638
632
627
620
615
610
604
600
597
594
590
587
585
582
578
576
574
571
567
566
566
566
564
562
561
559
560
559
559
559
558
558
557
556
558
557
555
554
555
555
556
558
557
557
556
556
555
555
555
555
554
555
557
557
556
555
555
556
557
556
556
557
556
557
557
555
555
555
555
557
558
558
557
558
556
554
554
555
556
556
556
556
556
556
555
554
553
553
554
554
556
557
557
556
555
555
554
554
553
553
554
554
554
553
554
553
552
552
552
552
552
553
552
552
552
551
552
551
551
550
551
553
552
552
551
550
550
550
551
550
550
552
551
550
551
550
551
550
549
548
549
551
550
549
549
549
549
549
549
548
548
550
550
549
548
549
548
548
548
549
550
549
550
550
549
548
549
549
549
549
549
550
550
549
548
547
547
547
548
547
549
550
550
550
550
551
552
553
557
561
565
566
569
569
568
567
567
566
565
566
567
568
570
573
577
579
580
579
578
578
575
573
575
575
575
573
572
569
567
564
562
560
559
559
557
555
553
552
549
548
549
550
549
549
548
547
547
547
546
546
545
547
546
546
547
546
545
545
546
546
546
548
547
548
545
544
545
547
547
547
549
549
549
548
547
548
550
550
550
548
548
548
550
563
588
621
661
702
746
788
820
839
824
772
713
644
595
576
569
561
549
529
506
487
473
461
458
463
469
475
481
487
497
509
521
530
537
545
552
556
561
563
564
565
565
565
566
568
568
569
571
570
570
572
572
572
573
574
574
575
576
577
578
578
578
578
578
578
580
581
583
584
585
584
583
584
585
585
586
589
591
593
593
594
594
595
595
597
599
600
603
604
606
608
609
610
610
612
616
620
623
625
627
629
631
633
637
640
643
647
652
656
660
664
668
670
672
676
681
685
688
692
694
695
697
699
700
700
702
702
704
703
702
698
695
689
687
683
677
672
669
663
656
650
644
636
633
628
622
618
614
610
605
601
596
592
588
587
584
582
581
578
576
574
572
570
569
569
568
569
569
568
566
564
564
565
564
563
564
565
564
564
564
563
563
563
562
562
564
564
566
566
565
563
563
564
564
564
564
565
566
566
565
564
564
564
563
564
565
565
566
566
565
564
564
563
562
562
564
565
565
566
565
565
564
563
562
563
562
563
563
563
562
562
561
561
561
563
562
561
562
563
560
560
561
559
558
559
558
559
560
561
560
558
557
558
559
559
559
557
558
558
558
558
557
557
556
557
558
557
557
557
557
556
555
555
556
556
556
557
557
557
556
555
557
557
555
555
555
557
557
557
556
556
553
553
552
553
554
554
557
557
555
555
554
556
554
554
554
557
556
555
555
554
553
553
554
554
555
555
556
555
555
555
554
554
553
554
554
555
555
557
556
555
555
557
559
562
567
571
575
576
575
573
572
572
572
571
571
572
574
578
582
584
584
584
586
585
584
582
581
581
581
579
578
577
574
571
569
566
564
564
562
560
558
557
556
555
553
553
553
552
551
551
551
550
549
550
551
551
551
551
550
550
549
549
548
548
548
550
551
550
549
549
549
550
550
550
550
550
550
550
549
549
551
551
553
552
551
551
549
555
574
602
638
679
720
763
801
828
838
806
750
686
625
589
578
571
563
550
527
505
489
475
464
463
468
473
479
485
493
504
515
524
533
541
547
552
556
561
562
564
564
565
566
567
568
569
568
570
571
572
573
574
575
573
573
574
576
578
577
577
576
577
578
579
580
582
584
584
584
584
584
584
584
585
586
588
590
592
594
594
594
594
597
599
599
600
602
604
605
607
607
608
609
611
614
618
621
623
624
626
630
636
638
641
644
649
653
657
660
664
666
669
673
677
681
685
688
692
694
697
698
701
703
702
703
705
707
707
706
702
699
695
693
689
683
678
674
668
661
654
648
643
637
631
626
621
617
613
610
606
600
596
591
588
586
585
583
580
578
576
573
571
569
567
567
566
568
567
566
566
565
564
562
561
562
563
563
565
564
563
562
561
561
561
561
560
562
563
561
562
562
562
561
560
561
563
564
562
561
560
560
560
561
563
563
564
564
564
565
564
562
561
559
560
562
562
562
563
564
562
561
560
560
561
561
562
563
563
564
563
562
561
561
561
560
562
562
561
560
559
560
560
560
561
559
558
558
559
559
559
559
559
557
556
556
557
559
561
558
558
559
556
555
555
556
557
557
556
556
556
554
555
556
556
556
555
555
555
557
556
555
554
555
555
555
556
556
556
554
554
554
554
554
553
553
554
555
555
556
556
555
555
554
553
553
554
556
555
555
555
555
554
554
555
559
562
566
570
570
571
572
571
568
569
569
570
569
570
570
573
575
577
580
582
583
584
583
581
579
578
578
579
577
576
574
573
572
568
566
564
561
559
557
556
556
557
556
554
553
552
551
549
551
551
552
552
550
548
549
550
549
548
547
546
547
547
547
549
549
550
549
548
549
549
550
551
551
551
551
551
550
549
551
552
552
554
553
553
550
551
563
585
613
647
688
728
766
792
810
803
760
707
648
603
590
589
584
575
557
533
512
497
484
477
476
475
480
485
490
496
504
516
526
535
541
548
556
559
561
563
563
564
566
568
569
568
568
570
573
573
572
572
572
573
575
575
577
579
578
577
578
578
579
580
582
583
586
581
582
583
584
585
586
586
588
589
590
593
592
593
594
593
594
597
599
601
602
603
604
605
607
608
610
610
613
617
619
622
626
625
627
631
636
639
641
645
649
653
657
658
661
665
669
673
677
682
685
687
689
691
693
694
697
698
701
704
702
701
699
697
695
693
689
685
683
676
671
664
658
651
647
642
636
632
626
622
616
611
607
602
596
593
591
588
585
584
582
579
576
575
573
571
569
568
568
567
567
567
565
564
564
562
561
562
562
563
563
562
563
563
563
563
561
561
561
561
562
562
562
562
561
561
562
562
562
562
563
563
563
562
561
562
560
559
562
563
563
563
562
561
562
562
561
562
563
564
564
564
562
562
561
561
561
561
561
562
562
561
562
561
560
560
560
560
560
562
562
561
560
560
560
559
559
558
557
559
560
560
559
559
558
557
556
558
560
560
560
559
559
560
558
557
556
556
556
557
558
557
557
556
556
556
556
557
557
557
557
556
557
556
556
555
555
557
557
557
556
556
556
556
555
555
555
557
558
557
557
557
556
556
556
554
555
556
558
559
558
557
557
559
559
561
564
568
573
576
578
578
576
574
576
577
575
574
575
575
578
581
584
586
586
587
588
586
585
583
583
582
581
579
578
577
575
573
571
568
566
566
564
562
561
559
557
557
556
556
556
557
556
553
553
552
553
554
554
554
553
553
552
552
553
552
551
551
551
552
553
554
552
551
552
552
551
552
554
554
554
554
553
554
556
556
554
555
554
552
556
574
601
636
676
718
761
801
830
844
821
768
701
635
594
581
574
567
554
530
509
490
475
467
467
472
479
485
489
497
509
521
531
540
547
554
561
566
568
571
572
573
573
573
574
575
576
576
577
579
580
579
579
580
581
582
582
584
586
587
587
587
586
587
587
587
589
590
591
594
595
594
594
595
595
596
596
599
601
602
602
603
604
604
605
607
609
610
612
614
615
617
618
620
621
624
626
629
633
635
638
639
642
645
648
653
656
661
664
668
673
675
678
682
685
689
693
696
699
702
705
706
708
709
710
712
712
713
712
712
710
707
703
698
694
691
686
680
674
669
662
655
649
645
638
633
629
624
620
616
611
608
604
601
596
593
592
590
589
587
585
583
581
579
578
578
577
577
578
577
576
576
574
573
573
573
572
572
573
574
574
573
572
571
572
572
573
574
574
574
573
573
573
572
572
572
573
574
575
575
573
572
573
573
574
574
575
574
575
574
574
574
574
573
573
575
574
573
574
574
574
572
571
571
572
572
572
572
573
572
571
571
571
572
571
571
570
571
572
571
570
570
570
569
569
569
570
570
571
571
570
569
568
568
568
568
568
569
569
568
568
568
567
567
568
567
566
567
568
568
568
567
566
565
566
567
567
567
568
568
568
568
567
565
565
564
565
565
567
567
565
565
566
565
564
565
565
566
567
567
566
566
565
564
565
566
566
567
567
565
564
564
565
566
566
569
570
573
575
578
582
583
587
587
585
585
586
587
586
585
585
585
586
590
594
597
597
599
599
596
594
592
592
592
593
592
590
589
587
582
578
577
575
574
573
571
572
571
568
567
566
563
563
562
562
563
564
564
562
563
563
561
561
561
561
561
562
562
562
562
562
561
560
561
561
560
561
562
563
563
562
562
563
561
561
563
565
566
566
564
563
560
563
580
607
641
681
723
767
806
833
849
828
773
710
644
600
585
579
570
557
534
510
492
480
472
472
478
483
488
493
500
512
524
536
546
555
563
568
571
573
574
576
577
579
580
582
583
584
585
584
584
584
585
586
586
587
589
590
591
589
589
589
590
590
591
593
595
596
596
596
595
595
596
597
597
600
602
602
603
603
604
606
607
608
610
611
612
613
614
615
616
618
620
623
626
627
628
630
634
636
637
640
643
646
649
653
657
660
662
665
669
673
677
681
685
689
693
696
699
701
704
708
711
712
713
716
717
718
717
715
714
712
710
708
705
701
696
691
684
678
672
666
661
656
649
644
639
634
630
623
618
614
610
608
605
601
599
595
593
591
589
586
584
582
582
582
583
581
579
578
576
575
575
575
575
576
575
575
574
573
573
573
574
573
573
572
572
574
573
572
572
572
573
573
574
575
575
575
575
573
572
571
573
574
575
577
575
574
573
573
573
572
572
573
574
574
574
574
574
572
572
573
572
572
573
574
574
574
573
571
570
571
571
571
572
572
573
574
573
573
572
570
569
570
571
572
572
572
571
570
569
570
568
567
569
570
570
569
570
569
568
567
568
569
570
571
569
568
568
566
565
566
566
566
568
569
568
568
568
568
568
567
567
566
567
568
567
566
565
565
565
566
566
566
565
566
567
567
567
566
566
565
565
566
566
567
567
566
566
565
564
564
565
563
564
566
565
565
564
564
564
564
565
565
567
569
570
571
573
577
579
581
582
581
582
582
583
583
581
579
579
582
586
591
595
596
596
596
595
592
588
588
588
589
589
588
587
586
583
579
575
573
573
571
570
569
568
567
565
564
563
563
562
562
563
563
564
564
562
559
560
560
560
560
561
562
562
562
561
561
561
562
561
559
561
562
563
562
562
560
560
561
561
562
563
565
566
565
563
562
560
562
573
597
628
665
704
742
779
806
823
821
780
726
665
616
599
597
589
579
563
539
520
506
494
487
487
487
489
494
500
507
514
524
537
548
554
559
565
568
569
572
576
578
578
577
578
579
581
581
581
580
581
583
585
587
586
586
586
586
586
586
588
590
591
591
590
591
591
591
593
594
596
598
598
599
599
600
600
601
602
603
604
605
609
610
610
610
610
610
613
614
617
620
621
623
625
626
628
630
633
636
639
642
645
649
653
654
656
659
663
667
671
676
681
685
688
690
692
694
699
703
705
707
710
712
712
712
712
711
710
711
708
707
705
701
696
690
685
679
673
668
661
656
651
646
640
635
630
624
619
615
612
608
605
601
599
596
594
590
587
585
584
584
583
583
582
580
577
576
576
576
575
576
577
576
574
574
574
573
573
574
573
573
573
574
573
572
572
573
573
573
572
572
574
574
574
573
572
572
572
573
572
573
573
574
574
573
573
573
571
571
572
573
574
575
573
573
572
571
571
572
572
572
573
573
571
571
572
572
571
571
571
572
572
572
571
570
569
568
569
569
569
570
570
571
570
570
570
569
569
568
569
569
570
569
567
567
567
567
567
567
568
568
568
568
568
568
566
566
566
567
568
567
567
568
567
566
565
565
564
564
566
566
567
568
566
566
565
565
565
565
566
566
566
566
566
566
564
564
564
564
564
565
565
565
565
565
564
564
564
564
564
565
566
566
566
565
565
564
564
565
566
568
570
572
574
577
580
583
584
585
584
585
586
587
585
583
583
584
587
591
594
597
598
598
596
594
593
589
589
590
591
590
590
588
585
582
577
574
573
573
572
571
572
570
566
564
564
563
563
562
563
564
564
562
562
562
561
560
561
561
561
562
562
561
561
560
560
560
560
562
562
563
562
562
562
562
562
562
561
562
563
564
566
567
566
564
563
562
562
572
594
627
664
704
747
788
822
845
845
803
745
678
621
596
587
578
568
550
527
508
493
481
475
478
483
488
493
498
507
520
532
543
553
560
566
570
572
575
577
579
580
580
582
583
583
584
585
586
586
585
587
589
589
590
591
592
591
591
592
594
595
595
596
596
596
596
596
598
599
599
600
602
603
603
604
605
605
605
606
607
609
611
612
613
614
615
617
618
619
621
623
625
627
627
629
632
634
635
639
643
646
649
651
656
659
662
666
669
672
676
681
685
689
692
695
697
701
704
707
709
712
714
716
717
717
718
717
716
715
714
712
710
707
703
696
691
684
679
673
668
663
657
651
645
640
634
630
626
622
618
615
611
608
605
601
599
596
594
592
591
590
589
587
586
585
583
582
582
581
580
582
582
581
580
578
579
578
578
578
579
579
580
581
581
579
579
578
579
579
579
580
581
581
579
579
579
578
578
578
579
580
579
580
579
579
579
579
578
578
579
579
579
579
580
579
580
579
578
578
578
578
580
580
578
578
577
576
577
577
577
578
577
577
577
576
576
576
575
576
576
576
576
576
575
575
574
574
573
573
574
575
575
575
575
573
572
572
573
573
574
574
573
573
574
573
572
572
573
572
572
573
573
573
572
571
570
570
570
571
571
571
571
572
572
570
569
570
570
570
570
571
572
571
572
571
569
570
570
571
572
572
572
573
571
570
570
571
570
570
571
572
573
573
572
572
571
571
571
570
571
572
574
576
577
578
581
586
589
592
593
593
592
592
592
590
588
587
588
592
597
600
604
604
604
603
602
600
599
598
599
600
598
596
595
592
589
584
581
580
579
579
578
578
575
572
571
569
569
570
570
569
568
569
569
567
567
567
567
567
567
566
567
567
566
565
566
567
567
567
567
567
568
568
567
567
566
566
566
567
568
569
569
570
571
570
567
567
566
565
574
596
627
666
705
746
790
824
847
850
812
754
687
628
600
590
582
572
557
533
513
499
487
481
482
488
493
497
502
513
525
536
547
557
563
569
573
577
579
582
583
584
586
586
586
585
586
587
588
590
591
591
592
592
591
592
593
593
593
594
595
598
597
597
597
598
598
598
599
602
604
605
606
606
605
605
606
608
609
609
611
612
614
615
615
616
618
619
621
622
626
628
629
631
632
633
635
639
642
644
646
651
653
655
657
660
664
667
672
677
682
685
688
692
695
697
701
705
707
711
713
717
719
720
720
721
723
724
724
723
722
719
716
712
708
703
697
691
685
680
675
668
664
658
651
645
639
633
629
626
623
618
615
611
608
606
601
599
598
596
595
592
591
588
588
588
587
585
584
584
584
584
583
582
581
582
582
580
580
580
581
582
582
581
581
580
579
579
580
581
582
583
582
582
582
580
580
580
581
582
583
584
584
582
581
581
580
581
582
583
583
582
581
582
582
581
581
583
583
581
581
583
582
581
580
579
580
581
580
580
583
584
584
582
580
578
578
579
580
580
580
580
580
577
577
577
577
578
579
580
578
578
579
578
577
576
575
576
576
576
577
578
577
577
576
575
574
573
574
574
575
576
575
573
574
573
572
573
573
573
575
575
574
573
572
571
571
572
572
574
575
575
572
571
572
570
570
572
572
573
573
572
573
571
569
569
571
572
572
572
573
573
572
572
571
571
572
572
573
576
579
582
585
587
588
588
590
590
589
589
589
587
587
587
590
594
597
598
601
602
604
601
598
595
595
595
594
594
593
592
590
589
587
583
579
578
578
576
575
576
575
571
567
565
566
567
568
568
567
567
568
568
566
565
564
565
563
565
565
566
565
566
565
566
566
565
565
564
565
567
567
567
566
568
567
567
566
565
565
567
569
570
569
568
565
569
584
611
644
680
720
761
796
818
832
815
766
707
649
613
606
604
595
585
565
542
524
510
499
494
493
495
499
503
506
514
525
536
547
555
563
568
572
575
577
580
581
579
581
584
586
588
588
588
588
589
589
590
591
592
593
592
593
594
594
594
594
595
597
598
599
599
600
599
600
600
601
602
603
604
606
607
606
607
607
608
610
611
613
614
616
617
617
618
620
619
621
624
628
630
632
633
634
636
638
641
645
649
652
655
659
664
667
669
670
674
678
682
686
690
694
697
699
701
704
706
709
710
711
714
716
718
718
715
714
712
709
708
706
702
699
694
689
683
676
671
665
660
656
651
645
640
635
628
625
620
616
613
611
609
607
603
599
596
594
592
591
590
589
588
587
586
585
584
582
581
581
581
583
583
583
582
581
580
579
579
579
578
579
579
580
580
579
579
578
578
578
580
581
580
580
580
579
580
579
579
579
580
581
581
581
581
581
579
580
580
579
579
581
581
580
580
579
578
579
580
579
579
579
579
580
581
579
579
578
577
578
577
578
578
579
578
577
576
576
576
576
576
578
579
578
577
577
576
574
573
574
575
575
577
578
577
575
574
575
575
574
574
575
576
575
575
574
574
573
573
573
573
574
575
575
574
575
574
573
573
573
573
574
575
575
574
573
572
572
571
571
573
574
573
573
573
573
573
572
571
571
572
572
572
573
573
572
572
570
571
571
571
572
573
573
573
572
572
571
572
574
578
580
583
587
591
592
592
591
591
592
593
593
591
591
591
591
595
598
601
603
604
606
605
603
599
596
596
597
597
596
595
593
592
587
584
581
579
581
579
578
577
575
575
573
571
571
570
570
568
569
569
570
570
570
568
568
569
567
568
568
567
568
569
568
567
567
568
567
568
568
569
569
570
571
569
568
568
568
569
571
572
573
572
571
570
568
574
592
619
655
695
737
783
822
848
859
831
774
708
643
604
592
586
577
561
538
516
498
486
477
480
486
493
498
503
511
522
533
544
554
562
570
575
578
580
583
584
584
585
586
588
588
590
591
591
590
590
590
591
591
592
594
594
595
595
595
597
598
598
599
599
600
601
601
601
602
602
603
603
605
607
608
608
609
611
611
612
612
613
616
617
618
619
621
623
623
624
626
626
628
632
635
637
639
641
643
646
648
651
654
657
661
665
668
672
674
677
681
686
690
693
697
700
704
706
709
711
712
715
717
719
720
722
721
721
719
717
715
713
710
707
702
698
693
686
680
674
669
662
656
652
647
642
638
632
626
622
617
613
610
608
605
603
600
597
595
592
590
589
588
587
587
586
585
582
581
580
579
581
582
582
582
582
581
580
579
579
580
579
579
579
581
581
581
580
579
579
579
581
581
582
582
581
581
580
579
579
579
578
579
580
581
581
581
580
580
579
578
580
580
581
583
582
581
580
579
579
579
579
578
578
579
579
579
578
577
577
576
576
576
577
578
578
578
577
575
575
575
575
575
574
574
575
575
574
573
572
572
573
572
573
575
575
574
573
572
572
572
573
573
572
571
571
572
571
571
570
571
571
571
572
572
571
570
569
568
568
568
569
570
571
571
572
570
568
568
568
568
569
570
570
570
571
570
568
568
568
567
568
568
568
569
569
570
568
566
566
567
568
568
569
568
568
568
569
571
572
574
576
579
584
586
588
589
587
586
585
585
584
585
586
588
591
594
596
597
596
597
598
598
596
595
593
592
592
590
587
588
587
584
581
578
577
575
572
571
569
568
567
566
566
565
566
566
564
562
562
562
562
562
563
563
564
563
561
560
559
559
560
561
562
561
561
561
561
561
560
562
563
562
561
562
563
562
562
562
564
566
566
564
563
562
562
574
596
628
666
705
747
788
821
842
835
789
730
664
614
595
589
581
573
555
533
513
498
485
479
482
486
490
497
503
510
521
532
541
550
558
564
570
573
575
577
578
578
579
580
580
582
584
585
585
585
584
583
584
585
586
587
587
587
589
592
591
592
591
592
594
595
595
595
596
595
596
595
596
598
599
600
603
605
606
607
607
607
607
608
610
611
614
617
620
621
620
621
623
624
626
627
631
634
638
640
641
644
646
649
653
657
660
664
667
670
674
678
681
686
689
692
696
699
702
705
707
710
711
711
712
714
715
716
716
716
713
709
706
702
698
692
687
683
677
670
663
657
652
645
640
637
631
625
622
618
613
608
604
601
598
599
595
592
590
588
586
585
583
581
581
580
578
578
577
575
574
573
572
571
572
571
572
572
573
572
574
571
571
570
569
571
572
571
571
571
571
570
570
571
572
571
570
570
571
571
572
572
571
572
573
574
574
573
574
573
572
573
572
573
573
573
572
572
573
574
572
572
571
571
573
573
573
574
572
571
571
569
570
573
573
573
574
573
571
571
571
570
569
568
568
569
570
569
569
568
568
567
567
567
567
568
568
566
566
567
567
566
565
567
565
565
566
566
568
567
566
565
563
563
563
565
566
565
564
565
564
562
561
562
563
564
565
566
565
564
563
562
562
563
564
564
563
562
562
562
562
562
562
562
561
562
564
564
565
567
567
567
570
575
578
580
582
582
580
578
577
577
575
575
576
580
583
588
591
592
592
592
589
586
585
585
588
589
587
584
584
580
578
576
573
570
570
569
568
566
564
562
561
559
559
559
559
559
558
557
557
557
557
559
557
557
556
557
557
556
556
557
555
557
556
556
557
556
556
556
557
556
555
556
555
556
558
559
559
559
559
559
559
557
555
554
558
572
598
631
667
705
745
782
808
824
809
760
704
645
605
594
592
584
573
554
532
515
499
487
482
481
482
487
493
499
507
515
527
537
544
552
558
562
565
569
571
572
572
572
575
575
577
576
577
579
581
580
581
581
580
580
580
581
582
583
585
584
586
586
587
587
587
588
591
591
591
593
594
594
594
595
595
596
597
598
600
601
602
603
604
605
606
607
610
610
613
614
615
616
618
620
621
623
626
630
634
637
640
642
644
646
650
654
658
662
665
669
673
675
678
682
686
690
692
696
698
700
702
702
703
705
707
706
705
705
703
702
698
694
689
685
681
675
670
665
660
655
649
641
637
633
627
624
620
615
612
608
604
599
596
593
590
589
587
584
584
583
581
579
577
576
574
573
573
574
573
573
572
571
570
571
571
570
569
570
572
571
571
569
569
569
569
569
569
570
571
571
570
569
570
569
568
570
570
570
571
571
570
571
571
571
570
570
571
572
572
571
571
572
571
571
570
571
571
572
572
573
572
572
571
571
571
572
572
572
572
573
572
570
569
569
569
570
571
570
570
570
569
568
569
568
568
567
568
570
570
569
569
569
567
567
568
567
567
568
568
568
568
567
567
567
567
567
567
567
567
567
566
567
567
565
565
565
566
566
567
567
566
565
565
565
565
565
565
566
566
566
566
565
565
564
565
565
565
565
565
565
566
565
565
564
565
565
565
566
566
567
566
564
565
566
567
569
570
573
575
579
582
584
585
586
585
586
587
589
586
584
583
584
586
589
592
596
597
598
599
597
594
591
590
590
590
590
589
588
586
583
580
576
574
574
573
573
572
571
569
566
565
563
563
563
563
562
563
563
563
563
563
563
561
561
560
561
561
562
563
563
562
561
562
561
561
561
561
562
563
563
562
562
561
562
562
564
566
566
566
566
565
563
561
568
589
619
659
698
740
785
822
849
855
817
758
690
629
596
584
577
568
550
524
503
489
476
472
477
483
489
493
498
508
521
533
544
554
563
568
572
574
575
576
578
580
582
584
584
585
584
586
586
585
586
587
589
590
590
590
591
591
592
592
593
594
594
596
596
597
597
597
597
