605
606
607
608
608
608
609
610
609
610
609
607
604
601
598
594
591
587
584
579
575
570
565
560
555
550
544
539
536
533
529
524
518
515
511
509
506
504
502
500
497
496
494
493
490
489
488
488
488
488
488
487
486
485
485
484
484
484
484
485
485
486
486
484
484
484
485
484
485
486
486
486
485
484
483
483
484
484
485
485
485
485
483
484
484
484
483
485
485
485
484
483
484
483
484
484
483
483
484
484
483
483
482
480
479
481
481
480
481
481
481
480
479
478
477
477
477
478
479
479
479
478
477
476
475
475
476
477
477
477
477
476
475
474
474
474
474
475
475
475
475
475
475
472
472
472
471
473
475
476
476
475
473
473
472
473
474
473
474
474
474
474
473
473
473
473
472
472
473
473
473
473
472
472
472
471
471
471
472
472
472
472
473
473
473
476
479
483
487
491
493
494
495
493
492
493
493
491
491
490
491
494
500
503
503
502
505
505
503
501
499
500
499
498
495
494
492
489
486
483
482
481
479
477
475
473
471
469
470
470
470
469
468
467
466
466
467
467
467
467
467
465
465
465
465
465
465
466
466
466
466
466
465
465
465
466
467
467
467
467
468
467
468
467
467
468
465
464
464
462
465
480
505
541
580
623
667
705
733
747
721
661
595
528
490
480
473
468
457
435
414
398
387
378
379
383
388
395
402
411
423
435
445
455
463
468
472
477
481
483
485
486
485
486
486
488
489
489
490
491
492
492
492
492
492
492
493
495
497
498
499
499
499
498
499
501
502
503
504
505
505
505
505
506
507
509
509
510
512
513
514
514
515
516
516
517
519
522
523
524
525
526
527
528
530
533
536
538
541
543
544
546
549
551
553
556
559
563
567
570
574
576
578
582
584
585
588
592
594
596
598
599
601
602
603
603
605
604
605
604
602
599
596
593
590
586
582
579
575
570
565
559
554
550
545
539
535
531
526
522
518
513
509
506
503
501
499
497
496
495
492
490
488
488
486
484
485
485
486
484
484
483
482
481
482
482
482
482
483
483
483
482
481
481
483
483
483
483
483
483
483
483
481
482
482
482
481
482
482
483
484
483
482
481
481
482
482
482
483
482
481
480
478
479
480
481
482
482
481
480
480
480
479
478
479
477
477
478
479
479
479
477
476
476
476
476
477
477
477
477
477
476
475
475
474
475
474
474
477
476
475
474
475
473
474
473
474
474
475
475
473
472
473
472
471
471
472
474
475
473
473
473
473
473
471
473
473
473
474
475
474
472
471
472
471
470
471
474
474
473
472
471
470
471
471
472
472
472
472
472
472
471
472
472
472
472
474
475
475
477
479
481
482
486
489
492
494
493
494
494
493
491
489
489
489
492
496
501
505
506
506
506
505
500
498
497
500
501
498
497
494
491
488
483
481
482
481
481
480
477
474
471
469
469
470
471
471
470
470
468
469
469
468
468
468
467
467
467
468
469
469
469
468
466
466
466
466
467
467
468
468
466
466
467
467
466
467
469
470
471
470
466
464
461
460
469
490
522
559
599
640
680
710
731
729
687
629
565
513
494
489
481
473
457
436
417
403
393
388
388
390
394
400
405
414
425
436
447
458
466
471
475
476
478
479
481
482
483
484
485
487
486
486
486
487
487
490
492
493
492
492
492
491
491
493
494
495
497
498
497
498
498
498
499
499
501
504
505
505
506
507
507
507
509
511
513
514
514
515
516
516
515
515
517
519
522
526
527
530
533
533
534
536
538
540
542
544
547
550
553
557
559
562
564
566
569
572
576
580
583
586
587
588
589
592
595
596
598
599
599
600
600
600
600
599
597
595
593
589
587
583
579
573
567
563
558
556
552
547
541
536
530
525
522
518
514
513
510
507
503
500
497
495
493
490
488
488
488
487
485
482
482
483
482
481
480
481
481
479
479
478
479
479
479
479
480
479
480
480
481
480
479
479
478
477
477
478
479
482
481
480
480
478
478
478
479
480
482
482
482
482
480
479
478
479
480
479
479
479
480
479
478
477
477
477
478
479
479
478
477
476
476
475
474
475
477
477
476
476
477
476
474
474
474
473
473
474
475
474
473
473
473
472
470
470
471
472
472
472
473
472
472
471
470
472
472
472
472
471
471
470
469
467
468
469
469
470
471
470
469
469
469
469
467
467
468
470
471
471
469
467
468
467
467
466
467
469
469
468
467
467
467
467
467
467
468
469
471
474
475
476
478
481
485
486
487
486
485
485
484
483
482
481
485
489
492
496
496
496
496
497
494
493
493
490
491
491
491
489
485
482
479
475
474
474
473
474
472
469
469
466
464
463
462
463
463
464
464
463
462
462
463
462
462
462
461
460
460
460
459
459
458
458
459
459
460
462
461
461
462
462
462
461
460
460
460
462
463
464
462
462
459
454
459
478
506
540
578
619
656
689
709
717
689
635
577
521
494
491
488
481
470
449
427
408
396
389
386
384
384
390
396
401
409
421
433
444
452
458
463
467
469
471
473
475
477
479
481
480
480
480
481
480
481
483
485
487
489
488
487
487
486
486
488
489
491
492
493
493
493
494
493
494
494
495
497
499
501
501
501
502
502
503
504
505
505
507
509
510
509
510
512
513
515
517
519
521
523
525
526
528
530
532
534
537
540
544
547
549
551
553
555
557
561
565
568
573
576
578
578
579
582
585
585
587
590
592
593
594
594
593
592
590
589
588
585
583
580
576
571
567
561
555
550
547
543
538
534
529
525
519
515
511
508
505
502
499
498
496
493
490
488
486
484
483
481
482
482
479
478
477
476
475
475
476
475
475
475
474
473
474
471
472
473
473
475
475
475
475
474
473
474
473
474
474
475
476
475
475
474
473
473
473
473
474
475
476
476
476
475
475
475
475
474
474
475
475
475
474
473
473
472
472
471
472
472
473
473
472
471
470
469
471
472
471
471
471
471
471
470
468
468
468
467
468
469
471
471
471
470
468
467
467
468
469
470
470
470
469
468
467
467
468
467
467
467
467
467
467
467
466
465
465
464
465
467
467
467
467
468
466
464
465
466
466
467
467
467
466
465
464
465
464
464
465
465
465
467
466
465
465
464
465
465
465
467
470
471
472
474
477
482
484
486
487
487
488
489
488
485
483
482
484
487
491
495
498
498
498
498
496
492
490
491
493
492
490
488
485
482
479
475
472
472
472
472
472
470
467
465
462
462
463
461
462
463
462
463
462
461
461
460
460
461
461
461
461
462
460
459
458
459
459
459
460
460
460
462
461
461
461
460
461
461
461
463
464
465
463
460
457
454
459
475
501
536
575
617
661
699
726
742
722
666
602
536
495
481
474
466
453
431
410
395
381
373
373
379
384
389
394
404
415
427
440
450
458
464
468
470
473
476
478
480
481
481
484
485
485
485
485
486
486
487
489
491
492
491
491
493
493
493
493
493
494
496
497
498
497
496
496
497
499
500
501
502
502
504
505
507
507
508
507
507
509
511
513
515
515
515
517
520
521
522
525
527
529
530
533
534
536
538
541
544
546
549
553
557
558
560
563
567
570
573
577
581
584
586
588
589
591
592
595
598
601
602
604
604
604
604
602
602
600
599
597
594
590
585
581
576
570
565
559
555
550
545
540
536
531
526
521
518
513
510
506
504
501
497
495
491
488
487
485
484
485
484
483
481
479
476
477
476
476
476
475
476
477
477
476
476
476
476
475
473
474
477
476
476
475
475
475
475
474
475
477
478
478
478
477
476
476
476
475
476
477
479
479
478
478
476
475
475
474
475
476
476
476
476
475
473
472
473
472
473
473
473
474
474
472
471
472
472
471
473
473
474
473
472
472
471
470
470
470
470
471
471
471
471
470
470
469
470
471
471
470
470
471
470
469
468
468
467
467
467
468
469
468
467
467
467
467
467
466
468
467
467
467
467
468
467
466
466
467
468
469
469
467
466
465
466
466
466
466
468
467
466
467
467
468
466
465
466
467
467
467
467
468
467
466
466
464
464
465
465
466
469
471
473
475
478
482
484
487
488
488
488
488
488
485
484
483
484
486
491
495
499
499
499
498
497
495
492
490
493
495
493
491
488
486
483
480
476
473
474
472
472
472
470
467
465
465
464
463
464
464
464
464
463
462
461
460
461
461
461
463
462
461
460
459
460
459
459
460
461
462
463
463
462
461
461
460
460
460
461
463
463
465
464
462
461
459
457
464
485
516
553
593
634
676
711
734
738
699
639
573
515
489
480
472
462
445
424
404
391
380
376
379
383
387
392
399
409
421
433
442
451
459
466
470
472
474
476
478
481
483
482
482
482
483
482
483
484
484
485
487
488
490
489
488
488
488
488
490
491
493
494
495
495
494
495
497
497
497
499
500
501
502
502
502
503
504
505
507
508
509
510
511
512
514
515
517
517
518
520
524
525
527
528
530
531
531
536
539
541
543
547
551
553
556
557
560
564
568
572
576
579
582
584
586
587
589
592
596
598
600
601
603
603
602
602
602
601
599
597
595
593
589
584
580
574
569
565
561
554
549
545
539
532
527
523
520
516
513
508
505
502
498
496
493
491
489
487
485
484
484
483
481
479
478
476
476
477
477
478
477
476
476
475
475
475
475
475
476
476
476
476
476
475
474
474
474
475
476
476
477
478
478
476
476
475
474
475
476
476
477
478
476
476
476
474
474
474
475
476
476
477
476
475
475
474
473
473
473
474
475
476
474
473
473
472
474
474
474
475
474
473
473
472
472
473
473
472
471
473
472
472
471
470
471
470
468
468
468
469
470
471
470
469
469
468
468
468
468
469
470
469
468
467
467
467
466
466
466
468
469
468
468
467
467
468
467
467
467
468
468
468
466
465
464
465
465
465
466
468
468
466
465
464
465
465
463
464
465
466
467
467
467
466
465
464
463
465
466
465
466
466
466
466
466
467
469
473
477
480
482
484
485
484
483
483
484
483
482
483
483
485
490
493
495
496
495
496
497
495
492
490
491
492
490
489
487
484
483
480
477
474
475
473
471
469
468
466
465
464
465
465
464
464
463
462
462
461
461
462
461
461
461
459
458
459
460
460
460
461
461
460
460
459
458
460
460
461
461
463
462
462
461
461
462
462
461
461
460
460
459
463
477
503
537
576
618
661
698
723
734
707
650
588
527
493
485
479
471
462
441
420
403
390
378
377
380
385
391
397
404
415
425
434
444
453
460
466
469
473
476
479
480
479
479
481
480
482
483
485
486
487
488
488
487
487
486
485
487
488
490
490
490
490
491
493
492
493
494
496
498
498
499
499
499
499
500
502
505
506
506
507
507
507
508
509
509
512
515
517
518
520
521
522
523
524
526
529
531
534
536
539
541
543
544
547
550
554
558
562
566
568
571
574
577
578
581
585
588
592
595
596
597
598
599
600
601
602
603
604
602
601
599
596
593
589
586
582
578
573
569
563
557
550
544
540
535
531
528
523
519
515
512
509
505
502
500
497
496
492
492
490
487
484
482
483
482
481
482
481
481
480
479
478
479
478
478
478
479
479
479
478
478
476
476
476
476
477
478
479
478
478
477
478
478
477
479
478
478
480
480
480
478
478
478
478
478
478
479
479
479
480
480
479
478
479
478
479
479
478
478
478
478
478
477
477
478
479
479
479
479
478
477
477
477
476
477
477
476
477
477
476
475
474
474
474
475
476
476
476
476
474
474
474
473
473
473
473
475
475
475
474
473
473
474
473
473
473
473
474
474
474
473
473
473
472
472
473
474
474
472
471
471
472
471
471
472
473
473
473
473
472
471
470
470
470
471
471
471
473
474
473
472
471
471
471
471
472
473
473
473
472
471
472
472
472
473
473
474
475
475
474
472
471
471
472
471
472
474
476
479
481
482
486
489
491
493
494
493
493
494
493
492
491
491
493
497
502
506
506
507
507
504
501
499
498
499
500
500
498
497
493
490
487
484
482
482
480
479
478
477
474
471
471
470
470
469
470
471
472
471
469
467
467
467
468
468
468
468
469
468
468
467
466
467
467
468
469
469
469
470
470
470
469
469
468
470
470
473
475
474
471
468
465
463
467
484
512
549
589
630
674
713
740
753
728
670
604
539
500
488
483
475
462
441
419
405
393
384
384
389
392
399
405
412
424
435
447
457
465
471
476
480
482
483
485
488
489
490
491
490
490
492
491
491
491
494
496
496
497
498
497
497
497
497
499
500
501
502
502
503
504
503
504
505
507
508
509
509
511
512
512
512
513
513
515
516
518
519
520
520
520
522
524
525
527
528
529
532
534
536
539
540
542
544
546
549
551
554
558
561
564
567
569
572
576
581
585
588
592
593
595
597
598
601
603
606
609
611
614
614
614
613
613
613
612
609
606
604
601
597
592
586
581
577
572
567
562
557
551
546
541
537
532
528
523
520
517
515
511
508
506
503
500
497
496
495
494
493
492
491
489
487
487
486
485
485
485
486
486
484
484
484
483
483
482
483
485
486
485
485
485
485
484
483
483
483
484
486
486
485
484
484
486
485
485
486
485
485
486
487
486
484
484
484
484
484
485
487
488
486
486
485
485
482
483
482
482
483
484
483
483
482
480
480
480
480
481
481
482
482
481
479
479
479
480
481
482
481
481
481
479
478
478
478
478
479
478
479
479
479
478
477
477
477
477
478
478
478
478
478
477
476
475
476
477
476
475
476
476
476
476
475
475
473
474
476
476
476
476
476
476
475
475
475
474
473
474
475
475
474
474
476
475
474
475
477
476
475
475
475
474
474
474
474
474
474
475
475
475
474
474
474
473
473
473
475
475
475
476
475
473
472
474
475
477
480
482
483
486
490
492
494
495
494
494
494
494
491
490
490
492
495
498
502
505
505
506
507
506
502
499
499
499
498
497
497
497
494
489
485
482
482
482
481
481
480
478
476
474
473
472
473
473
472
471
471
470
472
471
469
468
468
468
468
469
470
471
470
469
469
470
469
468
469
469
470
470
470
470
471
470
471
471
471
473
473
473
474
473
470
466
472
489
517
552
592
635
677
711
734
743
712
658
596
536
505
499
495
486
472
451
430
414
401
392
390
393
398
403
408
413
422
432
444
454
464
471
476
480
483
483
484
485
487
488
488
491
492
492
493
492
491
492
494
496
497
498
499
499
498
497
498
500
501
499
501
503
503
503
504
504
506
506
508
509
509
509
511
512
512
513
513
515
517
518
520
522
522
521
522
524
525
527
530
532
534
537
539
541
542
544
545
548
551
554
558
561
564
568
569
570
576
580
585
589
589
592
596
598
600
603
606
607
609
611
612
613
612
613
613
613
612
609
607
606
602
598
593
588
582
576
570
565
560
555
550
546
542
537
532
528
522
518
515
512
509
507
506
502
498
496
493
492
492
491
490
489
489
488
486
485
484
483
482
483
483
483
483
482
482
482
481
481
482
484
483
482
483
483
481
481
482
482
485
484
485
483
483
483
482
482
481
481
482
483
484
483
484
485
484
486
484
482
482
483
484
484
485
485
485
484
484
485
485
485
485
485
485
484
482
483
483
482
483
483
484
484
484
483
483
482
482
481
481
482
481
480
480
479
478
478
478
478
477
478
480
481
480
478
477
477
478
478
477
477
479
480
479
478
478
477
475
476
477
478
478
478
476
477
476
475
475
476
477
477
477
477
477
476
477
478
476
474
474
475
476
477
476
476
475
475
475
474
474
474
475
476
476
475
474
473
474
475
476
476
476
475
474
475
474
472
472
474
476
477
477
479
479
482
484
488
491
490
492
493
494
494
494
493
491
490
490
493
497
502
506
507
505
504
504
502
498
497
497
499
500
500
498
494
491
488
485
482
482
482
483
482
479
477
475
472
471
472
473
472
472
473
474
473
470
470
471
470
470
471
472
472
471
472
471
470
469
469
471
471
471
472
472
471
470
471
471
470
470
473
475
475
476
475
472
471
468
468
482
506
539
575
614
654
692
719
735
725
679
622
562
518
504
500
492
484
466
443
425
412
402
395
396
397
401
407
411
419
430
441
451
460
466
471
477
480
484
486
488
489
491
492
493
492
492
493
494
494
495
497
498
498
499
500
499
498
498
499
500
502
504
504
506
507
506
506
506
507
508
509
510
512
514
512
512
512
514
516
517
518
521
523
522
522
523
524
525
527
529
531
534
536
537
539
541
542
544
548
550
553
557
560
562
565
568
571
574
577
582
586
589
592
595
596
599
601
604
607
609
612
614
615
615
615
615
614
613
613
610
608
605
603
600
594
588
584
580
575
569
565
561
556
550
544
539
534
529
526
523
521
519
515
511
508
504
502
501
499
498
497
496
495
494
491
490
488
488
488
487
488
489
488
488
486
485
484
484
485
485
486
487
487
486
485
484
484
484
484
485
486
487
488
487
484
484
485
486
486
486
487
487
487
487
486
485
485
486
487
487
488
488
487
487
486
486
485
484
483
484
485
486
487
486
485
484
483
483
484
484
486
486
486
485
484
484
483
482
482
484
483
483
483
482
482
482
482
481
482
482
482
482
481
480
480
479
480
479
480
480
480
481
481
479
479
479
479
479
479
480
480
480
480
479
478
478
478
478
478
478
479
480
481
478
477
478
477
477
477
477
478
477
477
478
477
477
477
476
477
477
479
478
479
478
477
476
478
478
478
477
479
479
479
479
477
477
478
479
481
484
487
491
494
497
498
498
497
497
499
499
497
496
496
496
499
502
507
509
508
509
511
510
506
503
504
504
502
502
502
500
496
495
491
487
485
485
485
484
483
482
479
477
477
476
475
475
474
475
474
474
474
474
475
474
473
473
472
473
473
474
474
475
474
473
473
473
473
474
474
474
475
475
475
475
474
475
475
475
477
478
479
477
475
471
472
489
517
553
592
634
678
717
746
761
739
683
617
551
510
497
491
483
470
447
424
408
395
387
386
393
398
403
409
416
427
439
450
459
468
477
484
487
489
489
490
491
492
493
494
496
497
499
499
499
498
499
499
499
500
502
503
504
504
504
504
505
505
504
505
507
509
510
511
511
511
511
512
512
513
515
517
518
519
520
520
520
521
522
525
526
529
530
531
531
532
534
536
539
541
543
545
547
549
551
553
556
558
562
565
568
573
576
578
581
584
588
590
594
599
602
607
609
611
613
615
616
619
621
622
624
624
625
625
623
620
618
616
612
609
607
603
597
591
585
579
572
568
563
558
554
549
544
539
534
529
525
523
519
517
515
512
509
506
505
502
500
499
498
497
497
497
496
494
493
491
490
490
491
492
491
491
491
491
490
490
489
489
488
490
490
490
491
490
490
490
489
489
489
490
491
491
491
490
489
489
490
490
491
491
492
493
492
491
491
491
490
490
491
491
493
492
491
491
490
490
489
488
489
490
490
491
492
491
488
489
489
489
489
490
489
489
488
487
486
486
486
486
486
486
486
486
486
485
484
484
484
484
485
486
487
487
486
486
484
485
485
483
483
484
484
483
484
485
482
482
482
482
482
483
483
483
482
481
481
480
480
481
481
482
482
481
481
481
481
480
480
480
481
480
481
481
482
481
479
478
479
480
480
481
482
481
481
480
480
480
480
479
479
480
481
481
481
480
479
480
480
479
479
481
483
484
486
487
490
493
497
499
501
501
501
501
502
500
497
496
496
499
504
508
512
512
513
512
510
508
504
504
506
507
506
505
504
500
497
492
489
489
489
487
487
487
485
480
477
475
476
476
475
475
476
476
476
476
475
475
474
474
474
474
474
474
474
473
473
473
472
473
474
474
475
476
475
475
475
474
474
474
475
475
477
478
479
479
477
475
473
471
474
489
515
549
587
628
670
712
743
760
747
694
630
562
515
497
489
481
470
449
428
412
401
391
389
393
397
402
409
416
427
440
451
461
468
475
480
484
487
490
492
493
493
494
494
494
495
496
497
498
499
501
501
501
501
500
501
501
501
502
504
505
507
507
507
507
508
507
508
510
511
512
513
513
515
515
515
517
518
520
520
520
523
524
524
523
524
526
528
529
532
534
536
538
539
541
542
543
546
549
553
556
560
563
564
566
569
572
575
580
584
588
591
594
598
600
603
606
609
612
615
617
619
620
621
623
622
623
623
624
622
619
618
615
611
605
600
595
590
586
581
576
571
565
559
554
549
544
539
535
531
527
523
519
514
512
510
508
505
503
500
499
499
497
495
492
493
492
490
489
489
490
489
488
487
486
486
485
487
487
486
486
487
486
486
485
486
486
486
485
485
487
487
487
488
487
487
488
487
487
490
489
488
488
488
487
486
485
487
488
487
488
488
488
487
486
487
486
487
487
488
489
489
488
486
485
485
485
486
486
487
488
487
487
486
486
485
483
483
485
486
485
484
483
483
482
481
483
484
483
483
484
483
482
481
481
481
482
481
481
482
482
482
483
482
481
481
480
480
481
481
482
482
481
481
480
480
480
480
481
481
481
482
483
481
480
480
479
478
478
478
480
481
480
480
480
479
478
479
479
480
481
481
481
480
480
480
480
479
479
481
481
481
482
482
479
477
478
480
479
479
480
481
480
479
478
478
477
478
481
482
485
488
490
492
494
496
497
498
497
497
499
499
498
497
497
499
503
506
509
509
511
512
510
507
505
504
504
504
503
503
502
500
497
493
489
487
487
487
486
486
482
479
478
477
476
475
477
477
476
477
479
478
476
476
474
473
474
474
474
474
475
475
475
474
475
474
473
473
474
476
477
478
476
474
474
474
475
476
476
477
480
480
479
477
474
472
476
490
516
550
588
628
669
707
732
748
731
680
619
557
517
505
501
494
482
464
442
424
410
400
397
399
401
406
411
415
423
433
446
457
464
472
479
482
485
488
489
491
493
495
496
496
497
498
498
497
497
499
501
501
502
503
502
502
502
503
503
503
505
506
507
508
508
509
509
510
510
511
512
515
516
516
517
517
517
517
518
521
522
523
526
527
527
528
529
529
531
533
535
537
539
541
541
543
545
547
551
553
557
562
564
567
568
571
574
578
582
586
590
594
596
599
602
605
608
610
612
615
616
618
621
622
622
621
621
620
619
617
616
614
611
606
600
597
591
584
579
574
570
565
560
556
549
544
538
534
531
527
524
522
518
514
511
509
507
504
502
500
499
499
498
496
495
494
493
492
491
491
491
491
490
491
489
489
488
487
486
488
489
490
490
490
489
489
489
490
489
490
491
492
491
489
489
489
488
489
490
490
490
490
490
491
490
489
490
490
490
490
491
492
492
492
491
490
490
489
490
491
492
492
492
491
490
490
490
489
489
489
489
489
490
490
489
489
489
488
487
489
489
488
488
487
488
487
486
486
487
487
487
487
487
487
487
486
486
486
486
485
486
486
486
486
485
484
484
484
485
486
486
486
486
486
486
486
485
484
484
484
484
485
485
484
483
483
482
482
484
484
484
483
483
483
484
483
484
483
482
483
484
484
485
484
484
483
483
484
483
483
485
484
485
486
483
483
484
483
484
484
484
485
484
483
483
483
483
482
482
483
483
485
484
485
483
483
482
483
484
484
485
484
485
484
483
482
483
483
484
487
491
492
495
498
500
503
504
504
503
504
503
502
502
502
502
505
508
510
513
514
516
516
514
512
509
509
509
509
507
507
506
503
501
499
494
493
492
491
488
489
487
486
485
484
483
483
482
482
482
483
483
483
481
481
481
480
479
481
481
481
481
480
480
480
479
479
480
480
481
481
482
482
483
482
481
481
481
481
482
483
486
487
486
483
482
480
481
494
518
551
590
630
673
715
747
768
759
709
648
581
531
512
505
497
486
467
443
424
411
400
398
403
407
411
416
422
432
444
456
466
474
482
488
491
494
496
497
498
499
502
503
505
504
504
505
506
507
507
508
509
511
511
511
510
511
513
512
512
516
517
519
519
518
518
518
518
520
520
520
523
525
526
525
525
526
526
526
526
529
532
534
535
536
537
536
539
539
540
542
545
548
551
553
553
555
558
559
563
565
569
572
575
578
581
583
588
591
594
598
602
606
610
613
616
618
620
623
625
627
630
632
634
634
633
633
633
633
631
629
628
625
621
616
612
606
600
594
589
584
579
575
569
564
559
554
549
545
541
537
535
533
529
525
520
517
517
515
512
511
510
509
509
506
504
503
503
502
502
502
502
502
502
501
500
499
499
499
500
500
500
501
500
500
500
498
498
499
499
499
500
500
502
502
501
500
500
499
499
500
500
501
502
502
502
501
501
501
502
502
502
502
501
501
500
500
501
500
500
500
501
502
501
500
500
500
499
499
498
499
499
498
499
500
498
498
498
498
498
497
498
499
498
498
497
497
496
496
495
497
497
497
497
496
495
495
494
494
495
496
495
496
496
496
495
494
494
494
494
495
493
493
493
494
493
493
491
492
493
493
493
494
494
492
491
491
492
491
492
494
494
494
494
493
492
492
492
492
491
490
491
492
493
493
492
491
491
491
492
492
492
492
493
494
492
491
490
490
491
492
491
491
491
491
492
492
492
491
489
490
490
491
491
491
491
491
489
490
491
492
493
493
492
490
489
490
491
491
490
491
492
494
496
498
500
503
506
509
511
513
512
512
512
509
507
506
507
508
511
516
520
521
521
520
519
518
516
515
515
516
517
515
513
509
506
505
502
499
499
500
499
499
499
495
491
489
488
488
489
488
487
489
490
489
489
489
489
488
488
487
486
486
488
488
487
488
487
487
488
488
488
489
489
489
490
489
488
488
487
488
490
489
490
491
491
491
489
488
487
486
495
515
546
582
622
664
705
741
766
771
734
677
611
553
524
516
509
501
485
464
445
429
416
408
408
412
417
423
427
435
446
458
469
478
485
490
496
498
501
502
505
508
508
507
508
509
509
512
512
512
515
516
515
516
516
516
516
517
518
519
520
520
519
520
520
521
522
522
524
526
528
529
529
527
527
529
529
530
531
533
536
537
538
538
538
539
540
542
543
544
546
548
551
552
553
555
558
560
563
566
568
570
573
576
578
581
584
587
590
595
600
603
605
608
612
614
618
621
625
628
631
633
635
637
637
638
640
640
640
641
640
637
635
630
626
622
618
614
609
602
598
595
589
581
576
570
565
559
555
551
547
544
541
536
532
528
525
523
521
519
517
515
513
511
509
509
507
507
507
506
505
504
504
503
503
501
500
500
501
501
502
501
500
500
501
502
502
501
501
501
502
503
501
500
500
500
499
500
501
503
502
501
501
502
501
501
502
502
502
500
503
504
504
503
502
502
501
502
502
503
502
503
503
501
503
502
502
503
501
502
503
503
502
501
500
500
501
502
501
501
501
501
501
501
499
498
499
499
499
501
502
501
500
499
498
497
498
497
496
498
499
498
498
498
497
497
496
496
497
497
497
497
496
496
495
495
495
495
496
496
496
495
496
495
494
494
496
496
496
497
497
496
496
495
494
494
494
495
495
495
496
497
497
497
495
495
495
496
495
496
497
496
495
494
492
492
493
493
493
494
496
498
498
495
493
493
492
493
494
494
495
494
493
494
494
493
493
493
494
494
494
494
493
493
494
494
496
497
499
504
508
510
512
513
513
512
511
511
513
511
511
511
513
516
519
522
523
524
525
523
523
519
516
515
517
518
516
514
510
510
509
507
503
500
501
500
498
498
496
494
493
493
492
492
491
491
491
491
491
491
492
492
491
490
490
489
488
489
489
492
492
491
490
490
491
491
490
489
489
491
491
490
491
491
491
491
491
492
494
496
495
493
491
488
490
504
529
562
600
641
680
720
749
767
754
709
651
588
541
526
523
516
505
486
463
444
430
418
412
415
419
424
428
431
440
452
464
473
481
490
496
499
502
504
506
508
510
510
511
513
515
515
516
516
517
517
517
517
518
519
521
521
521
521
521
521
522
524
525
527
528
528
528
528
528
530
530
530
532
533
536
537
536
537
538
538
540
541
541
543
545
547
548
548
550
552
554
557
558
560
563
564
567
570
571
572
574
578
583
586
589
592
596
599
602
605
609
613
617
621
624
627
629
631
634
637
639
641
643
644
645
646
647
646
644
643
643
640
636
634
630
623
618
613
608
602
597
592
586
581
576
571
565
561
557
553
548
545
543
540
538
535
531
528
527
524
523
521
521
519
519
519
518
516
514
513
512
513
514
515
515
514
513
511
510
510
511
512
512
513
511
512
511
511
511
511
511
511
514
514
514
512
511
512
513
513
511
512
514
515
514
514
513
513
513
514
512
513
514
514
515
514
513
513
512
512
513
514
513
513
513
513
512
511
512
512
511
511
512
512
513
512
510
509
509
509
510
509
510
511
510
510
510
511
509
508
508
509
510
512
510
508
508
507
507
506
506
505
505
507
507
507
507
507
506
506
506
507
507
507
508
507
506
506
506
506
505
505
506
507
508
506
505
505
504
504
505
505
507
507
507
505
505
505
504
504
504
505
506
507
508
507
505
504
504
503
504
505
506
507
505
504
504
503
503
503
503
504
505
504
504
505
505
504
503
505
504
504
505
506
505
505
504
504
506
503
503
505
506
505
504
505
505
505
508
510
512
516
522
524
526
525
524
524
524
522
521
521
522
523
525
528
531
532
532
535
535
533
532
530
528
529
528
526
523
522
520
520
518
515
514
511
511
510
508
507
506
506
504
504
505
504
503
502
500
500
501
502
502
502
502
502
501
501
500
501
502
502
502
503
503
503
502
500
501
502
502
503
504
503
503
503
503
502
503
505
506
505
505
504
502
504
520
546
582
621
663
708
748
777
791
768
713
650
584
544
532
527
518
507
486
463
445
431
420
419
423
429
434
440
445
455
465
476
487
496
504
511
514
516
517
518
519
519
522
522
523
524
525
526
526
525
525
526
528
528
529
532
532
532
534
534
533
532
533
534
535
535
536
537
538
538
539
543
543
542
543
545
547
547
548
547
547
549
550
551
553
555
556
557
558
559
560
561
563
566
569
571
572
575
577
579
581
583
587
591
593
596
600
604
608
611
614
617
621
625
629
633
637
640
642
644
646
648
649
651
653
655
657
658
658
656
653
650
647
643
641
638
633
627
623
616
610
603
597
592
588
582
578
573
568
562
558
555
550
545
542
539
537
535
534
532
529
527
526
525
524
523
523
522
520
519
517
516
516
517
516
516
517
516
516
515
514
513
514
514
515
516
515
514
514
513
514
515
515
514
514
514
515
516
515
514
514
514
515
516
516
516
516
516
517
515
515
516
515
514
517
517
517
516
515
515
515
515
514
514
515
515
515
514
514
513
513
514
514
514
514
515
514
514
514
512
512
511
510
511
512
511
512
513
512
510
510
510
510
510
511
511
510
510
511
510
509
508
509
509
509
510
511
510
509
508
508
508
508
507
507
508
509
510
510
510
508
506
505
507
508
509
508
508
506
506
506
507
507
508
509
508
506
507
507
507
506
505
506
507
505
506
506
507
506
506
505
506
507
507
507
507
506
507
507
506
505
504
505
506
507
507
507
508
506
505
506
507
509
511
514
515
516
518
520
523
524
524
524
524
525
525
522
522
521
523
528
532
535
535
537
537
536
533
529
528
528
529
529
529
528
525
523
521
518
515
513
511
512
513
511
509
507
505
504
504
502
502
502
502
502
505
505
502
499
498
499
501
501
502
501
501
501
499
501
502
503
502
501
501
502
503
503
502
502
501
501
500
501
503
506
507
506
504
504
502
504
518
544
577
615
657
700
737
762
775
755
705
649
588
547
535
529
521
510
489
467
449
433
422
421
425
429
432
438
442
450
461
472
483
491
499
504
508
511
514
515
517
518
518
520
521
520
521
522
523
523
524
525
525
526
529
530
529
529
528
529
528
529
531
532
534
535
535
535
534
535
536
537
539
539
540
540
541
542
543
544
544
544
547
549
550
552
554
555
556
557
558
559
562
564
566
569
570
572
574
576
578
581
586
590
593
595
598
602
605
608
612
617
621
624
629
631
634
637
639
642
644
646
648
651
653
653
653
653
652
651
649
647
644
643
638
632
626
620
615
608
602
598
593
588
582
578
573
567
563
557
554
551
547
542
539
536
533
530
528
527
526
523
523
522
520
518
517
516
515
515
515
516
515
514
514
514
513
512
511
511
511
511
513
514
514
514
513
511
511
511
510
512
512
514
513
513
513
512
511
512
511
512
513
514
513
514
514
512
512
512
512
512
514
513
512
512
513
512
511
512
514
513
514
514
513
512
512
511
511
511
512
511
511
513
512
512
512
511
510
510
510
511
511
510
511
511
511
510
508
507
508
508
509
510
510
510
509
509
509
508
507
507
508
507
507
507
507
507
506
506
507
507
507
507
508
507
506
506
504
504
504
505
506
506
506
506
505
505
506
506
506
505
505
505
505
506
505
505
505
505
504
504
504
505
505
505
505
505
505
505
504
505
505
505
505
506
505
505
504
503
503
503
504
505
505
506
506
504
503
503
503
504
506
507
507
509
511
512
515
518
522
524
525
525
523
523
523
521
520
521
523
526
530
535
536
535
535
534
532
530
529
528
530
531
529
527
524
521
519
517
513
512
512
512
510
509
506
504
503
501
501
503
503
503
503
501
500
499
499
499
499
500
500
501
501
500
499
500
501
500
501
500
500
501
502
501
500
500
500
501
501
500
502
503
503
504
505
504
502
502
499
501
515
540
573
612
651
692
732
764
783
772
724
662
594
547
529
521
514
504
484
461
445
432
420
416
419
423
429
434
440
450
462
475
484
492
500
504
508
513
515
517
519
520
521
521
521
521
523
523
524
525
527
528
530
528
527
529
528
529
531
532
533
533
534
534
534
535
535
536
538
538
540
541
541
542
542
543
544
545
546
548
550
551
551
552
552
553
554
555
556
559
561
563
564
566
568
568
571
573
576
579
584
586
589
592
595
598
600
604
609
613
618
622
625
629
631
634
637
640
644
648
651
652
654
656
657
657
658
658
658
657
656
654
651
648
644
638
633
628
623
617
610
605
600
594
589
583
576
573
570
566
562
557
554
550
545
542
539
537
535
534
533
532
530
528
526
524
524
523
522
523
523
522
521
520
519
520
519
518
518
518
519
519
520
519
517
518
519
519
518
518
519
519
519
519
518
519
519
518
519
520
521
520
521
521
519
518
518
519
520
520
521
521
519
520
521
519
519
519
519
519
519
519
520
520
518
518
517
519
520
521
521
520
520
518
517
518
516
517
518
517
518
519
518
517
517
516
516
516
516
516
517
517
516
516
515
515
516
515
515
515
517
518
515
515
514
514
514
513
513
516
515
515
515
515
513
512
513
513
513
515
514
513
514
513
513
512
512
513
513
513
513
512
511
512
513
512
512
513
514
513
512
511
511
511
511
511
511
511
512
513
512
511
510
510
510
511
511
510
510
512
513
513
511
510
511
510
510
511
511
512
511
511
510
510
510
510
510
511
510
511
511
512
511
510
511
512
514
516
518
523
528
529
529
530
530
530
529
528
527
526
527
529
532
535
537
537
538
539
540
539
536
533
534
534
533
531
528
526
526
525
522
518
519
518
516
515
514
511
509
509
508
509
509
508
506
505
504
506
505
506
507
505
505
505
507
506
505
505
505
506
505
505
506
506
505
505
504
504
505
507
507
507
505
504
505
508
509
509
508
507
507
505
507
522
546
581
619
660
705
746
775
792
775
723
661
595
550
534
527
518
506
486
464
447
434
422
420
425
431
438
442
447
458
467
478
488
496
503
509
514
518
520
522
522
523
524
525
526
527
527
530
531
530
530
530
532
532
532
532
534
536
536
537
536
535
536
537
538
540
540
541
541
541
541
542
542
543
546
548
549
551
552
551
552
554
553
555
558
560
561
562
563
563
564
565
567
570
572
575
578
579
580
582
585
588
591
594
599
603
606
610
614
617
620
624
626
630
634
637
641
645
649
652
654
655
656
657
658
661
663
665
665
664
660
657
654
650
648
645
640
634
628
621
614
607
602
597
592
587
581
575
571
567
563
559
555
551
548
547
545
541
537
535
533
531
529
528
527
527
526
524
524
523
522
522
521
520
521
521
520
519
519
518
516
515
517
518
518
519
519
520
518
517
518
517
518
518
519
521
521
520
518
518
516
518
519
517
519
521
520
520
521
520
520
521
519
519
520
520
520
521
520
520
520
518
517
519
520
520
520
519
519
517
517
517
518
518
519
519
519
519
519
518
517
517
517
517
516
516
516
516
516
515
514
515
515
516
517
516
514
515
514
514
513
513
515
514
514
514
515
515
515
514
514
513
512
512
512
512
514
513
512
514
512
511
511
512
512
514
514
513
512
510
511
512
512
512
513
513
512
512
512
511
511
509
509
511
513
514
513
512
511
510
510
511
511
510
511
511
510
511
510
509
509
509
509
511
513
513
512
511
511
508
508
508
510
511
513
513
510
511
511
512
511
509
508
510
511
513
515
515
517
519
520
523
524
527
530
531
530
528
528
527
525
524
525
530
534
536
539
541
541
539
536
536
533
533
534
536
533
531
528
525
524
522
518
517
517
518
518
517
514
511
509
508
509
509
509
509
509
508
507
508
508
507
506
505
507
507
507
507
506
506
506
507
505
506
506
507
508
507
507
507
507
507
507
508
507
508
508
509
510
510
507
506
504
503
516
537
565
600
636
675
717
751
773
777
742
690
628
571
544
537
530
521
506
485
465
450
438
429
427
429
431
436
443
448
457
470
483
491
498
504
509
513
515
519
522
523
524
524
523
523
525
525
527
528
529
530
530
532
531
532
531
531
534
534
535
536
536
536
536
538
538
539
540
541
542
543
543
544
544
544
545
545
547
549
551
554
555
555
554
554
556
558
560
561
563
565
566
567
569
570
572
574
577
580
583
585
588
592
594
598
600
603
608
612
616
619
623
627
629
633
635
638
642
646
649
652
654
655
655
657
659
658
658
659
658
656
653
650
645
641
636
631
626
621
616
612
605
599
592
586
582
577
572
569
565
561
557
553
549
546
542
540
538
536
535
533
531
529
527
526
523
523
523
523
523
524
522
521
520
522
521
520
520
519
520
522
521
519
518
518
520
519
518
518
519
520
520
520
519
519
519
519
519
520
520
521
521
520
519
519
520
519
519
520
521
521
521
521
520
519
518
518
520
521
521
520
520
521
520
518
519
520
520
519
520
522
521
520
519
519
518
517
517
518
519
518
518
518
517
516
517
516
515
516
516
516
517
517
515
516
515
516
516
514
515
516
514
515
514
514
514
514
515
517
517
517
515
514
512
513
513
514
515
515
516
517
515
515
514
512
512
512
513
514
513
514
514
513
513
512
511
513
513
512
513
514
513
512
512
511
511
512
513
512
514
515
513
513
513
512
512
512
513
513
513
513
515
514
513
512
512
511
511
513
514
514
514
513
512
512
512
513
515
518
520
523
526
529
531
533
533
533
533
533
534
533
531
530
530
533
537
542
543
543
545
546
543
538
538
538
537
538
536
535
532
532
529
526
523
521
521
521
520
518
518
516
513
512
511
512
511
510
511
512
512
512
512
511
511
510
510
511
512
512
512
511
513
513
513
512
511
511
512
513
513
512
512
513
512
510
510
511
513
515
517
515
514
514
511
509
520
543
573
612
653
696
739
774
796
795
750
692
624
568
545
537
528
518
501
479
459
445
434
428
432
436
441
446
450
457
469
481
491
500
509
516
520
522
525
527
528
529
531
534
534
537
536
536
536
537
537
538
539
540
541
542
542
542
542
543
544
544
545
546
547
547
547
548
548
550
550
549
552
554
554
555
555
555
556
557
559
559
561
563
564
566
567
569
569
569
572
575
575
578
579
581
583
585
587
590
593
596
599
602
605
608
612
616
619
621
626
630
634
639
644
647
648
651
654
657
660
661
663
664
667
670
670
669
668
669
667
665
663
660
658
653
647
642
635
630
624
618
613
609
602
597
592
586
580
576
572
568
565
563
559
556
553
550
547
546
544
542
541
540
538
537
536
535
532
532
531
531
532
532
531
531
530
530
529
528
528
529
529
530
531
530
529
529
529
529
530
529
529
529
530
531
531
530
529
530
529
528
529
530
531
532
531
529
529
530
529
529
529
530
531
532
531
531
529
529
527
528
529
530
530
529
529
528
527
527
527
527
528
528
528
528
529
528
526
526
527
527
528
528
527
526
525
525
525
525
525
526
526
526
525
524
524
523
522
521
522
523
523
523
522
522
522
521
521
522
521
521
522
522
521
522
521
521
520
520
520
519
519
520
520
520
520
519
519
518
518
519
522
522
522
521
519
519
518
517
518
518
518
520
521
520
519
517
518
517
517
517
518
518
519
518
517
516
516
517
518
518
518
519
518
517
516
516
516
517
517
517
517
519
519
519
517
517
517
515
515
516
518
518
518
519
519
519
520
521
523
527
531
535
537
538
538
537
535
534
532
530
531
532
536
539
541
541
542
542
542
542
539
537
537
538
539
536
534
532
530
530
530
527
525
524
522
521
521
521
518
516
515
515
516
516
513
513
512
512
513
513
513
513
512
510
511
510
510
510
511
510
510
511
512
511
509
509
509
510
512
513
514
514
513
512
511
511
512
514
515
515
515
515
513
518
535
561
596
633
673
717
757
784
796
768
714
652
589
553
542
536
529
517
494
473
456
440
430
430
434
437
445
450
455
464
475
486
494
502
510
517
521
523
525
526
527
528
528
528
529
531
534
535
535
535
534
535
537
538
538
538
540
540
540
540
540
541
540
540
542
542
544
545
545
546
547
547
548
547
548
549
551
555
556
556
556
555
556
557
558
560
563
564
566
567
568
570
571
574
575
578
580
581
582
586
590
592
594
597
601
604
607
612
616
618
621
625
629
633
637
641
644
648
651
653
655
657
658
661
663
665
667
667
665
665
662
660
656
653
650
646
641
637
633
625
619
613
605
598
595
589
585
581
575
570
565
560
556
554
551
549
546
544
542
539
536
534
531
529
528
527
527
527
526
524
523
522
520
522
523
521
521
523
523
522
521
521
520
519
520
520
522
523
522
521
519
519
520
520
520
520
521
521
520
520
521
522
521
522
522
521
522
522
521
520
519
519
520
521
521
522
523
523
523
522
521
519
518
520
521
522
523
523
522
520
520
519
519
519
518
519
521
522
521
520
519
518
517
517
520
519
519
519
519
517
515
514
514
514
513
515
516
516
515
516
515
513
513
513
515
515
514
514
513
512
513
513
512
513
513
513
513
512
513
513
514
513
512
513
513
511
512
513
513
512
512
512
511
512
512
511
511
511
512
511
510
509
509
510
512
512
511
511
511
511
510
511
510
510
512
511
511
512
511
510
509
511
511
512
513
512
512
511
509
509
509
509
510
511
512
512
511
512
512
512
516
519
522
524
527
528
529
531
531
529
526
525
524
522
522
523
527
530
532
533
534
536
536
535
534
533
531
531
532
531
530
527
524
524
523
520
518
518
517
515
513
512
510
508
508
509
510
509
509
509
507
507
506
506
506
505
506
507
507
507
506
505
505
506
507
507
508
507
507
507
506
505
506
508
509
510
510
508
509
508
509
510
511
511
510
508
508
517
538
567
601
638
677
719
751
772
778
742
687
625
570
544
538
534
526
514
492
470
453
439
430
429
430
435
441
446
451
461
472
482
491
498
505
511
516
520
522
523
525
524
523
524
526
527
530
531
531
532
534
532
532
533
534
535
537
537
538
539
538
538
539
540
540
542
545
546
546
546
546
545
546
545
547
549
550
552
553
552
554
554
555
555
555
558
561
563
565
566
566
566
568
570
572
575
578
582
584
587
590
591
593
595
599
602
607
612
616
618
622
626
629
633
636
640
643
648
651
653
654
656
657
659
660
661
662
662
662
661
660
656
652
649
645
641
637
632
625
620
614
607
602
596
591
586
582
578
573
569
564
560
556
553
550
548
546
544
541
539
536
534
532
530
530
528
528
527
526
526
526
525
523
523
524
524
524
524
524
524
523
522
522
523
524
524
524
525
524
524
525
524
523
524
523
523
524
525
525
526
524
524
523
524
524
524
524
524
523
524
524
522
523
524
524
524
525
526
525
526
525
523
522
522
522
523
524
525
523
524
523
523
523
522
522
523
523
523
524
524
522
520
521
521
522
522
521
521
522
521
519
519
520
520
519
519
520
520
521
520
519
519
519
518
517
518
520
520
518
519
518
517
517
516
516
516
518
518
518
517
516
517
517
517
516
517
519
517
517
517
516
517
516
516
516
517
518
518
518
518
515
515
515
515
516
517
517
517
517
516
515
516
515
514
515
515
516
517
518
517
515
514
515
517
517
517
518
519
518
515
515
515
514
514
515
516
516
515
516
515
515
515
515
515
517
517
517
516
516
517
516
515
516
519
522
525
530
535
536
537
538
537
535
531
529
529
531
531
531
533
536
538
537
537
538
540
541
540
538
536
535
534
533
533
533
532
530
528
526
524
524
522
521
521
519
518
516
516
515
515
515
513
513
515
513
511
512
511
511
511
510
510
509
511
510
511
511
511
510
511
510
511
511
511
510
511
513
515
515
514
514
513
513
515
516
516
516
515
513
512
518
535
564
602
642
685
730
768
797
808
778
721
656
591
552
538
532
524
507
485
464
447
434
427
428
433
439
446
450
455
466
479
489
498
505
513
519
523
527
527
528
528
529
529
530
531
531
533
536
536
536
536
536
537
537
539
541
542
541
540
541
540
541
543
544
545
547
547
547
547
547
547
547
547
550
551
553
555
556
555
555
556
556
557
560
563
565
565
566
567
568
568
570
571
574
578
581
582
584
586
588
590
592
596
598
602
606
610
614
617
620
624
628
633
637
640
643
647
650
653
656
657
660
664
667
668
670
670
670
669
668
666
665
663
661
657
651
645
641
634
628
622
617
611
606
601
595
590
583
577
572
569
565
560
555
553
551
548
546
543
540
536
534
533
532
532
532
531
529
529
528
526
524
524
525
524
523
524
524
524
522
522
521
522
522
522
522
524
523
522
522
521
520
521
522
522
522
522
523
522
522
522
521
522
523
523
525
524
523
523
523
522
522
522
523
524
524
524
524
523
523
523
523
523
522
523
524
523
522
522
521
520
521
520
521
522
523
523
520
518
517
518
518
520
520
519
520
522
521
519
518
517
518
519
519
521
520
517
516
516
517
516
516
517
517
518
517
516
516
516
515
516
516
515
515
516
516
516
515
516
516
517
516
514
514
514
514
512
512
514
513
512
512
513
514
514
515
515
515
514
513
512
512
512
514
515
515
514
513
512
510
510
512
513
514
515
515
515
514
513
512
512
513
512
511
513
513
514
513
513
513
513
511
510
511
512
513
513
515
514
513
511
511
510
511
513
514
515
516
519
522
526
528
529
532
532
532
531
528
528
526
526
526
526
529
533
535
534
534
537
537
536
535
533
533
533
535
532
529
529
527
524
523
522
521
520
520
521
519
516
514
511
510
511
511
512
511
509
509
506
507
508
509
509
507
508
508
509
508
508
505
505
506
506
507
507
507
505
507
509
509
508
509
510
510
508
507
509
511
513
512
508
508
508
508
516
536
564
599
636
675
715
751
776
784
753
700
638
578
548
541
535
529
516
495
472
456
443
432
428
430
435
441
447
452
462
471
482
490
498
505
511
515
518
522
525
527
526
526
526
526
527
529
532
533
534
534
534
534
531
529
531
533
534
535
536
537
538
537
536
537
539
542
543
543
543
544
544
544
544
547
549
550
549
550
550
553
557
557
556
557
559
560
561
563
565
567
569
570
569
572
576
578
580
583
584
586
589
593
595
598
601
605
610
615
619
622
626
629
632
634
638
644
645
648
651
655
659
659
660
661
661
663
664
663
663
662
659
657
653
648
642
637
633
628
622
616
608
602
595
590
586
581
573
569
566
561
558
554
549
545
542
540
538
536
533
532
531
530
528
526
523
523
522
521
521
521
521
519
517
517
518
516
517
518
518
518
517
516
515
515
517
516
517
518
517
519
518
517
516
515
515
514
515
515
516
515
516
516
515
514
514
514
515
517
518
515
515
516
515
516
515
516
516
516
516
516
516
515
514
514
515
515
516
517
517
516
516
516
515
515
515
515
516
517
516
513
512
511
511
512
513
513
513
514
514
514
514
513
510
510
510
512
512
513
514
512
511
510
509
510
510
510
511
511
512
511
511
510
510
510
509
508
509
510
510
510
511
510
510
509
509
508
507
509
510
509
507
507
506
507
508
507
508
510
510
510
509
508
506
506
506
506
508
509
509
509
509
508
507
507
507
507
509
509
508
508
508
508
507
507
508
509
509
510
512
514
516
518
523
526
528
528
529
529
528
526
524
525
524
522
522
526
530
533
534
532
532
533
533
533
532
530
529
529
528
527
526
524
523
519
518
517
516
517
516
515
513
510
508
505
506
507
506
506
506
507
506
505
504
503
504
504
503
504
504
504
503
503
504
503
503
503
504
506
507
506
506
506
505
505
506
504
506
507
507
509
511
509
508
507
507
503
506
524
546
578
618
659
702
744
775
794
781
731
668
600
552
534
527
520
510
490
470
452
437
426
422
426
431
436
440
445
455
467
479
489
498
505
510
515
519
521
524
524
525
527
527
528
528
527
528
529
531
532
533
533
531
533
533
534
535
535
536
536
538
538
538
540
539
539
541
542
544
545
544
545
546
546
545
546
548
549
550
552
553
554
556
556
555
557
559
560
563
564
566
568
569
570
572
575
577
579
585
589
591
592
595
597
600
604
608
613
616
620
624
626
630
634
636
641
645
648
651
654
655
657
659
662
662
662
664
664
664
662
660
656
653
649
645
637
633
629
623
618
612
605
599
592
585
582
578
574
570
565
560
556
551
548
546
544
541
539
536
535
535
532
529
527
525
524
524
525
524
523
522
521
521
521
521
519
519
520
520
521
521
519
518
518
518
517
518
519
519
520
521
519
520
518
518
519
520
519
520
520
521
519
519
519
519
518
518
519
519
520
519
520
519
519
518
517
517
519
519
520
519
518
518
517
516
517
517
517
518
517
518
517
515
515
516
515
516
517
518
518
516
515
514
515
515
514
515
514
514
515
515
516
515
514
513
513
512
513
514
514
515
513
512
512
512
512
512
512
513
514
513
513
512
512
511
511
512
512
512
512
514
513
511
509
509
509
510
510
509
511
512
511
511
510
508
509
509
511
510
510
510
509
510
510
509
508
508
510
510
510
510
509
509
507
507
507
508
508
509
510
510
512
514
517
521
525
526
527
530
529
528
526
524
522
522
521
522
525
528
529
531
531
532
533
533
532
533
531
530
531
530
527
525
524
521
519
518
517
516
515
515
513
511
510
507
505
504
503
504
505
507
505
503
503
503
503
504
504
503
502
502
501
501
501
501
501
502
502
503
504
506
505
503
501
499
500
501
502
503
505
505
504
504
506
507
506
505
504
503
509
527
554
589
628
670
713
751
778
790
762
708
644
580
543
531
525
516
505
484
461
444
431
420
419
423
427
432
437
443
455
467
476
485
493
500
504
508
512
515
518
519
519
519
519
519
521
523
524
527
527
526
526
526
524
525
527
528
528
531
531
531
532
532
532
531
532
532
533
536
538
538
539
539
540
540
540
541
543
545
546
545
546
545
547
549
550
551
554
555
557
558
559
560
562
564
566
569
572
575
578
581
583
585
588
592
596
600
606
610
613
614
617
622
624
628
633
638
642
646
649
651
653
654
653
656
657
657
658
658
657
654
650
647
644
640
637
631
626
619
612
607
601
596
589
582
577
572
566
562
560
555
550
546
541
538
535
533
532
530
526
525
523
521
519
518
518
517
517
518
516
515
513
513
512
511
512
511
510
511
511
511
509
509
509
510
510
509
510
512
512
511
510
509
510
510
508
508
510
510
510
510
510
510
510
511
510
509
511
512
511
512
511
511
511
512
512
512
511
510
510
511
510
510
510
511
511
511
511
513
512
509
508
508
508
507
507
508
508
510
510
510
508
507
506
507
505
505
507
507
506
505
504
504
504
506
505
504
504
505
506
506
506
505
504
504
501
503
504
505
505
504
503
501
501
502
502
501
501
502
502
503
502
501
499
498
500
501
502
503
503
502
500
500
500
501
500
499
500
501
500
502
503
500
501
501
499
500
500
498
497
499
501
500
499
499
498
498
500
499
498
500
501
503
508
510
513
516
519
521
519
516
514
512
511
509
510
512
515
519
522
522
522
521
521
522
523
521
521
521
521
520
519
516
512
510
509
506
507
508
507
505
504
502
499
497
496
495
496
495
494
494
496
495
494
495
494
493
494
494
493
492
492
493
494
493
492
494
495
495
493
492
493
493
493
493
494
495
495
497
496
496
498
499
498
498
497
497
495
495
507
530
560
594
633
672
710
740
760
758
715
660
598
549
531
527
521
514
497
473
452
437
425
418
418
422
424
431
436
441
451
461
471
481
487
493
498
504
506
509
511
511
512
512
511
512
515
517
517
517
517
517
517
517
517
518
517
518
521
523
523
523
524
523
524
526
526
527
528
529
530
530
530
531
532
532
533
536
538
537
536
537
539
539
541
543
545
546
547
548
549
551
553
555
555
558
560
564
567
570
572
573
576
579
582
584
591
595
597
602
607
608
609
614
620
624
627
631
634
638
642
644
645
645
646
649
650
649
648
647
646
646
642
636
633
628
624
619
614
609
600
595
589
582
577
573
566
562
557
552
548
545
541
536
534
531
527
527
524
521
519
519
516
513
513
512
511
510
510
509
508
506
507
506
504
506
505
505
506
505
505
505
505
504
506
505
506
505
503
505
505
506
505
505
505
505
505
506
506
506
506
505
504
506
505
506
507
507
506
507
507
506
507
505
505
506
505
506
508
506
505
506
506
504
506
506
505
506
506
506
505
505
505
505
503
503
503
504
504
506
504
505
503
502
503
501
503
504
505
505
504
503
503
503
502
502
503
503
503
502
501
501
500
500
500
501
500
502
502
502
501
501
500
499
498
500
501
500
500
499
500
499
499
497
498
498
501
501
502
501
499
497
499
498
498
498
500
501
501
499
498
498
498
498
498
499
500
499
500
499
499
498
498
498
499
499
500
500
499
498
497
497
498
499
499
499
500
501
503
506
507
510
514
517
519
520
521
520
519
518
516
513
511
512
516
521
524
527
528
527
527
526
524
522
519
520
521
521
519
516
515
514
510
507
508
507
505
505
506
505
502
499
497
497
496
495
496
497
497
498
497
496
495
495
495
496
497
497
498
496
495
494
494
494
495
495
496
497
498
497
497
496
496
496
496
495
496
498
500
501
502
498
496
497
495
497
511
535
568
607
649
691
731
760
780
769
724
663
597
551
533
526
516
504
486
464
444
429
419
414
417
421
426
431
437
445
458
470
481
489
494
501
504
506
508
512
514
516
519
518
516
518
518
519
520
520
520
522
524
525
523
522
523
524
526
528
528
529
529
529
529
530
531
533
534
534
536
536
537
538
538
538
538
539
540
542
542
545
548
547
547
549
549
550
552
554
556
557
558
561
564
565
566
570
571
574
577
581
585
586
590
592
598
600
604
608
613
615
621
624
628
630
632
636
641
644
646
649
650
652
653
656
656
657
657
656
655
653
648
646
640
636
631
624
619
613
608
603
597
592
585
578
573
569
564
559
556
552
548
545
542
539
535
533
530
528
527
526
525
524
522
519
517
517
517
516
517
516
516
515
512
511
511
512
513
510
511
512
512
512
513
512
512
512
512
512
512
512
511
510
510
511
510
511
512
512
512
512
512
512
511
511
511
510
512
512
512
513
512
512
512
510
510
511
510
510
512
512
512
512
510
511
509
510
510
510
512
511
511
511
509
509
508
508
508
508
510
510
508
508
508
507
507
507
507
508
509
507
507
506
507
506
506
504
504
507
507
507
507
506
506
505
505
504
504
504
506
506
505
505
504
504
504
503
503
503
504
505
504
503
502
503
505
505
504
503
505
504
503
503
503
503
504
505
503
503
503
503
505
505
505
503
502
501
502
502
503
504
504
505
504
503
502
501
500
501
503
504
503
502
500
501
501
502
503
503
503
503
504
505
505
508
509
514
517
520
523
525
524
522
521
521
519
517
517
519
524
527
529
530
530
529
528
527
527
526
527
527
526
523
521
517
515
515
513
512
511
510
509
507
504
503
499
496
495
495
495
495
495
496
497
498
499
499
499
500
501
502
502
500
500
499
499
499
498
498
499
499
499
499
498
498
498
499
500
500
500
502
502
501
500
501
503
504
504
504
503
502
507
524
550
585
625
666
710
749
778
792
765
711
645
581
543
530
522
514
504
482
459
440
427
418
417
422
428
433
437
445
455
467
478
486
493
499
505
510
514
516
519
520
520
521
520
519
521
523
523
524
526
527
526
526
526
526
527
528
531
532
531
531
532
533
533
534
535
536
536
537
538
539
539
539
540
542
543
543
546
547
546
546
547
548
549
551
553
555
557
557
557
560
561
563
565
569
570
571
575
578
579
580
582
585
589
593
596
602
606
610
615
618
620
623
627
633
637
641
645
647
649
651
653
653
654
657
660
661
662
662
661
659
657
653
649
644
640
636
630
625
619
612
605
599
593
588
582
578
573
568
563
558
552
547
544
542
539
537
535
533
531
528
527
524
523
521
522
520
519
518
517
517
514
512
514
515
513
511
511
512
512
512
513
514
512
510
511
513
514
513
512
511
509
511
513
512
511
512
512
513
515
515
514
512
512
511
513
514
515
514
512
513
512
512
512
512
514
514
515
515
517
515
513
512
511
512
513
513
514
515
516
515
515
513
513
514
515
515
512
512
511
510
510
511
510
510
511
511
513
512
510
507
508
508
509
510
511
512
511
509
509
509
509
507
506
508
509
509
510
510
508
507
506
506
507
508
508
505
505
504
505
506
507
508
506
505
505
507
507
508
506
505
506
505
506
506
506
507
507
507
505
504
503
504
506
504
504
506
506
505
503
502
501
503
505
505
505
505
506
506
505
505
504
503
506
509
510
514
517
518
521
521
521
523
523
523
524
523
523
521
519
519
524
529
531
531
531
534
535
534
532
529
527
526
528
528
527
525
522
520
519
517
514
514
512
512
513
511
508
508
507
504
503
503
503
503
502
504
505
504
502
502
503
503
502
501
502
503
503
502
502
502
501
502
501
500
503
503
503
504
503
501
501
501
502
502
504
505
508
511
511
507
504
501
504
518
543
575
611
650
690
726
753
770
759
718
666
605
559
547
544
537
525
506
482
462
445
433
428
429
430
434
440
446
453
462
473
483
490
497
503
508
512
515
518
520
522
522
521
523
524
525
525
524
524
527
527
528
529
530
530
531
531
530
530
530
532
534
534
535
535
536
537
537
537
538
540
541
541
542
544
543
543
545
546
546
548
549
550
552
552
553
554
556
559
560
564
565
566
566
568
570
573
577
580
582
585
587
590
594
597
600
604
608
611
616
621
624
629
634
635
637
640
643
646
647
651
652
655
659
661
660
659
660
657
656
656
654
650
645
641
635
629
624
618
612
607
602
595
587
581
577
572
568
562
557
555
553
550
544
541
540
536
533
533
531
529
528
526
522
519
519
519
517
518
519
521
520
519
517
516
515
515
514
515
515
516
516
516
516
515
515
515
514
516
517
517
517
516
515
515
515
515
515
514
515
516
516
516
516
516
516
517
515
516
517
516
516
516
516
516
516
517
516
516
516
515
517
517
517
517
516
515
515
516
515
515
516
516
515
515
515
515
514
514
515
516
516
514
513
514
514
512
512
512
512
513
514
513
511
510
510
511
510
510
511
511
512
511
512
510
509
509
511
511
512
512
511
510
510
509
509
508
509
509
511
511
512
511
511
510
509
509
508
508
508
509
510
510
509
509
508
507
507
508
509
510
509
508
508
508
507
507
507
507
507
507
509
509
510
508
507
508
507
507
510
510
509
507
507
506
506
508
509
512
515
516
519
524
526
528
528
528
527
527
528
527
527
527
527
528
530
533
536
538
539
539
537
534
532
530
530
531
530
528
527
525
523
521
519
516
515
515
514
514
513
511
509
507
505
506
507
505
504
507
507
508
507
506
505
504
503
503
503
504
504
505
506
506
505
505
505
504
504
504
504
506
508
507
507
507
506
506
506
507
509
511
511
512
510
509
506
512
530
555
591
632
674
716
754
782
794
767
713
648
585
548
535
528
518
505
483
460
443
428
421
421
427
432
437
441
448
458
471
483
491
499
507
513
515
516
519
522
523
525
526
526
527
527
526
527
529
529
530
532
534
535
534
535
535
535
536
538
537
536
538
539
541
542
541
542
541
542
544
544
545
548
547
547
548
549
550
550
552
554
555
554
556
558
558
559
561
562
564
567
569
573
572
573
576
577
580
583
585
589
593
596
600
604
607
610
613
616
621
625
629
634
638
641
644
647
651
654
656
660
663
665
666
667
666
667
665
665
664
662
660
657
653
647
641
634
628
623
618
611
606
600
594
588
583
578
573
568
564
561
557
554
550
547
544
541
538
535
534
533
531
529
530
528
527
526
524
523
524
524
524
523
523
522
521
520
521
522
520
520
522
521
521
520
519
520
521
520
519
520
523
521
520
521
521
520
519
520
520
520
521
522
522
521
520
519
518
519
520
520
521
522
522
522
521
520
520
519
519
520
518
519
521
520
518
517
518
517
519
520
520
519
520
520
518
516
516
516
516
517
517
516
517
516
515
514
515
515
515
514
515
516
515
514
514
515
515
514
513
513
514
514
515
514
512
513
513
512
512
513
513
513
514
513
513
511
510
512
512
513
514
514
512
511
511
511
511
510
510
511
511
511
512
512
511
510
511
511
511
512
512
512
512
511
509
509
509
509
510
511
512
512
512
511
510
510
509
508
510
510
510
509
511
511
510
510
509
510
510
509
511
511
509
509
510
509
509
510
510
510
511
511
511
511
513
515
519
520
523
528
532
534
532
528
526
524
524
523
524
524
528
531
533
535
535
536
535
534
533
532
531
531
532
531
528
527
523
523
522
517
516
515
515
514
512
510
508
506
506
507
506
505
504
503
504
504
504
504
505
505
504
504
503
503
504
505
504
504
505
505
505
505
506
505
504
503
504
504
504
503
504
504
506
506
505
506
509
509
509
509
508
506
508
523
547
580
619
660
705
749
782
801
784
733
669
601
554
536
529
522
511
491
466
447
433
420
419
425
431
438
442
447
458
468
479
487
495
504
510
515
517
520
522
522
524
525
525
524
525
526
526
527
527
528
529
530
529
530
531
532
535
536
535
535
535
535
536
536
538
538
540
541
541
542
542
544
543
545
547
547
549
551
552
551
551
552
553
554
557
559
560
562
563
564
566
567
567
568
571
575
578
579
582
586
588
589
592
596
599
603
607
610
613
617
620
624
629
633
637
641
644
649
652
653
657
660
662
663
665
666
669
669
669
667
664
661
658
655
650
647
642
638
632
625
618
611
604
599
593
588
583
577
572
566
560
557
554
552
548
545
543
540
536
532
531
530
529
527
527
526
528
529
525
523
521
521
518
518
518
518
520
520
518
518
516
516
518
519
520
521
519
518
518
517
517
517
518
518
519
519
519
519
519
519
518
518
519
520
520
521
522
522
521
520
519
518
518
519
523
524
523
521
520
520
520
519
519
520
521
522
522
523
521
519
519
519
521
521
520
519
518
520
519
519
520
520
518
518
517
518
519
519
517
517
517
518
518
518
519
519
518
518
517
517
515
514
514
514
516
516
516
518
517
517
517
515
515
516
516
517
518
517
516
515
513
512
512
514
514
515
516
516
516
514
515
514
515
516
516
516
516
515
514
513
513
515
516
518
518
516
515
515
515
515
515
514
512
514
514
515
516
514
513
512
513
514
513
513
514
515
515
515
514
512
514
512
512
514
516
516
519
520
520
520
521
526
530
532
534
534
534
534
531
529
528
526
526
526
531
536
538
539
538
538
538
538
536
534
534
537
536
535
533
531
529
529
527
525
524
524
522
521
519
517
516
515
512
511
511
514
514
513
513
514
512
511
511
512
514
513
513
511
510
510
511
512
512
511
512
514
514
513
511
510
511
511
513
513
512
512
513
514
514
515
516
516
515
516
514
513
517
533
560
593
629
670
711
747
772
783
764
717
660
598
561
553
550
541
530
510
488
470
456
442
437
438
441
446
453
457
463
472
484
494
500
507
514
520
523
526
527
528
530
530
529
530
531
532
535
538
540
539
536
538
537
537
538
539
541
544
545
544
543
544
544
546
548
548
548
550
550
550
549
550
551
552
554
555
557
558
560
560
560
561
562
563
563
564
567
569
570
571
575
575
575
578
581
584
585
587
590
592
595
596
600
605
608
613
616
618
622
628
631
635
638
641
646
650
653
657
661
663
665
667
668
668
670
671
674
675
673
671
669
667
662
659
655
651
646
641
635
630
623
616
610
601
597
593
587
582
578
575
570
566
561
558
556
553
550
548
545
543
540
538
537
536
535
534
534
534
533
531
530
528
528
529
529
529
530
530
530
528
529
529
529
528
527
528
529
528
529
529
530
529
528
528
527
526
529
532
531
529
527
527
527
528
529
529
529
529
530
528
529
529
529
529
529
529
529
530
530
528
527
526
527
528
528
528
529
528
528
528
528
528
528
526
528
528
528
528
528
528
527
525
525
524
525
528
527
527
526
526
526
524
523
525
526
525
525
525
525
523
522
522
522
522
522
524
526
524
523
523
523
522
522
525
525
523
522
522
524
523
521
521
520
521
522
524
523
522
523
523
521
521
522
520
522
522
522
523
524
521
521
520
520
520
521
522
524
524
523
522
521
521
520
520
521
523
523
522
521
521
522
521
520
520
522
523
525
527
529
531
533
537
541
542
541
543
542
543
541
538
537
538
540
544
547
551
553
553
553
553
549
547
545
545
546
546
546
546
543
541
537
532
529
530
531
530
528
528
525
523
521
519
518
517
519
520
520
520
520
516
516
516
516
515
517
520
519
518
518
517
517
516
518
517
516
516
516
518
519
518
517
518
517
518
519
521
521
522
524
523
521
520
519
517
525
545
574
609
648
689
732
769
795
804
775
723
657
593
558
546
538
529
513
490
468
452
439
431
431
437
443
450
455
462
475
488
498
507
513
520
526
529
530
534
538
538
539
540
541
540
540
542
543
546
545
546
546
546
546
547
547
547
548
549
551
552
552
552
552
554
554
553
554
555
557
559
559
561
561
560
560
561
562
563
565
566
567
568
568
570
570
571
574
577
577
579
581
583
585
586
586
588
592
595
598
601
603
606
609
611
616
620
622
626
631
635
639
643
647
650
654
656
660
664
667
671
673
674
676
676
677
678
680
680
680
680
678
675
671
665
661
656
651
646
640
633
627
622
616
609
601
597
593
589
583
580
576
572
570
566
561
558
555
552
550
550
550
546
543
541
542
542
541
538
539
540
538
539
538
537
536
536
535
536
535
537
536
535
535
534
534
535
535
535
535
535
536
536
536
535
534
533
534
534
535
535
535
536
536
535
536
535
534
535
536
535
536
536
537
535
533
535
535
534
534
535
534
533
534
533
534
532
531
531
534
534
535
534
532
532
532
532
533
534
534
535
535
532
529
530
531
530
531
534
532
533
532
529
529
530
530
530
531
532
531
531
533
532
529
528
528
528
528
529
531
530
529
528
529
529
528
527
527
528
528
528
528
528
528
530
528
526
528
528
527
527
528
528
525
525
525
525
527
526
525
526
526
525
526
525
526
524
524
527
528
526
524
525
526
525
525
525
525
527
526
525
526
525
525
526
526
525
526
529
532
534
537
540
542
543
544
544
542
542
542
543
542
540
543
546
550
551
553
555
556
556
556
553
551
550
549
548
546
545
545
545
542
538
535
534
534
530
529
530
528
527
523
523
523
523
521
520
521
521
521
520
519
520
520
520
520
520
520
521
520
521
521
519
520
520
519
519
520
519
520
521
521
520
521
521
520
522
523
526
528
528
525
523
521
520
525
544
573
609
649
691
731
767
791
800
771
717
656
596
563
554
549
538
526
504
481
464
452
442
442
445
450
455
460
464
474
485
496
505
513
521
527
531
534
537
538
539
539
540
543
542
543
543
542
544
546
546
547
547
548
548
550
550
551
551
551
552
553
553
555
555
557
555
554
555
555
557
558
560
561
563
563
564
564
563
566
569
570
571
572
574
574
575
575
576
578
581
583
584
586
588
591
593
594
596
598
600
603
607
611
615
619
620
623
625
628
633
637
643
646
651
653
655
659
664
665
667
670
672
676
678
678
677
677
678
677
676
676
674
671
669
666
661
654
646
639
633
627
623
618
613
607
601
596
590
585
581
577
573
570
567
564
559
555
551
549
548
546
546
546
542
540
539
538
539
538
538
537
537
536
536
535
535
534
534
533
533
534
535
535
534
534
533
534
534
535
535
534
534
534
535
537
535
533
533
533
533
534
535
534
536
537
535
534
534
532
532
532
532
534
536
536
535
535
535
535
532
533
534
535
535
534
532
532
533
533
535
535
535
534
534
533
532
533
533
531
532
533
534
534
534
532
531
532
532
531
529
529
530
530
531
532
530
529
528
530
531
532
531
531
531
531
530
528
528
529
529
528
529
531
531
531
530
529
528
529
530
531
531
529
529
530
529
528
529
529
528
527
530
532
529
528
528
527
527
528
529
530
530
529
528
529
528
528
528
527
528
528
528
530
533
535
536
537
539
542
544
546
547
545
546
547
544
541
542
545
549
552
556
558
558
557
557
556
552
548
549
552
554
553
552
550
547
543
540
538
536
536
534
535
534
532
529
527
525
526
527
527
528
529
530
528
525
524
522
523
522
523
524
525
526
524
524
524
523
523
526
527
527
527
526
524
523
525
525
525
527
528
528
528
528
530
531
529
528
526
525
528
542
566
599
634
671
711
749
776
793
780
736
682
621
577
565
562
555
546
526
502
484
470
457
451
451
452
455
462
468
474
484
496
506
513
519
527
532
533
537
540
542
545
546
543
545
544
546
546
546
548
549
550
551
553
553
553
552
553
554
556
557
557
557
558
558
557
558
559
561
563
565
566
566
565
567
567
567
568
570
572
572
573
575
576
576
576
577
579
581
583
586
589
591
593
593
594
596
598
601
604
606
609
613
615
617
621
624
627
631
637
640
643
646
650
654
658
660
666
669
672
675
677
678
679
680
681
683
685
685
685
684
682
679
676
671
666
661
656
652
647
641
636
630
623
617
612
605
599
595
592
587
585
580
576
571
568
566
564
560
558
557
556
555
553
550
549
547
547
547
546
546
546
546
545
544
544
542
542
543
542
543
544
543
542
542
542
541
542
542
541
543
543
544
543
543
543
543
543
544
543
544
544
545
543
543
543
544
544
545
545
545
544
545
544
544
543
544
543
543
544
545
544
543
543
542
542
542
543
544
543
544
544
544
542
542
540
540
542
543
543
542
542
542
540
540
540
539
539
540
542
542
542
541
540
539
539
539
539
539
540
539
538
538
537
537
537
537
537
537
538
538
539
540
538
537
537
537
536
537
537
539
540
540
537
537
535
535
536
536
536
536
538
537
537
537
535
535
537
537
539
539
538
537
537
539
540
541
543
546
550
554
556
559
558
558
557
559
559
557
557
556
557
560
564
568
568
569
570
570
570
568
565
564
564
564
562
561
558
557
556
555
550
547
546
545
544
544
542
539
538
539
539
538
538
538
536
537
537
537
538
536
536
536
534
536
536
536
535
537
538
537
536
536
536
535
536
536
537
538
539
538
538
539
538
538
539
541
542
543
542
541
539
537
542
559
587
623
661
702
746
785
813
823
797
743
678
613
576
564
557
548
533
510
489
471
457
449
450
456
463
469
474
480
491
503
513
524
533
537
543
548
551
553
553
553
555
555
557
559
559
560
561
562
563
563
563
562
564
564
566
567
568
567
568
568
569
570
570
571
571
572
572
572
573
574
575
576
577
578
579
580
580
581
582
582
582
584
585
588
590
591
592
593
594
596
596
597
600
603
606
607
610
613
614
616
621
623
625
629
634
638
641
643
647
652
656
659
663
668
672
676
679
680
682
683
686
689
692
693
694
697
696
694
694
692
689
687
684
681
677
671
666
661
654
645
640
633
628
622
618
613
607
602
596
591
589
586
582
579
576
574
571
569
566
563
561
560
559
559
559
558
555
555
554
552
552
552
552
553
552
553
554
553
552
552
551
552
551
551
552
552
552
552
552
551
550
551
552
552
552
553
553
552
550
550
552
552
552
552
553
553
553
554
553
552
553
553
554
554
553
552
552
552
550
550
551
550
552
553
552
551
551
551
550
550
550
549
550
550
551
550
551
550
549
548
547
548
547
548
548
548
549
548
547
545
546
547
548
548
548
547
546
546
545
545
545
545
545
546
547
546
546
545
545
543
543
543
545
545
545
545
544
543
544
544
543
543
544
544
544
543
543
544
544
544
542
542
544
545
546
546
544
544
543
542
543
544
544
545
544
544
545
544
546
546
548
552
554
557
559
562
563
563
561
562
562
562
561
561
561
565
568
571
574
575
574
575
574
573
571
570
572
572
567
564
565
565
563
561
558
557
556
554
552
550
549
546
544
544
545
545
547
545
545
543
542
540
541
542
542
542
541
540
541
542
544
543
543
543
544
544
543
541
542
542
542
542
542
543
544
543
544
545
544
543
544
547
547
545
544
542
546
560
586
621
658
699
742
779
803
816
795
744
685
624
587
575
571
563
552
530
507
490
476
464
460
464
471
476
480
485
494
504
514
523
532
539
545
548
553
555
555
557
557
557
559
559
561
563
562
563
563
564
564
564
564
565
566
568
570
569
570
570
570
569
571
572
573
576
577
577
577
576
576
577
579
581
583
583
582
584
584
584
585
586
587
589
591
593
593
595
596
596
599
600
601
603
605
610
611
612
615
616
620
623
626
630
634
638
640
643
647
650
653
656
659
663
668
672
675
678
680
683
684
685
688
690
692
693
694
694
692
690
688
684
682
679
675
673
668
662
655
649
641
634
628
623
618
614
608
603
597
592
589
584
580
577
575
573
571
569
567
564
561
558
558
558
557
557
556
554
553
553
551
550
549
549
549
550
551
551
550
548
548
549
550
550
551
551
550
548
549
548
549
550
549
549
550
551
550
550
550
551
549
550
551
550
549
550
551
552
552
550
550
551
550
550
551
550
550
549
549
550
551
550
550
551
549
549
549
549
549
548
548
549
551
552
551
550
549
549
549
546
546
547
547
547
547
547
547
547
546
544
545
545
545
545
545
545
546
547
546
545
545
544
543
543
544
544
544
545
544
543
542
542
543
545
545
543
542
542
543
543
541
539
541
542
541
541
543
543
544
546
550
552
556
559
559
561
561
559
559
559
558
556
557
558
558
562
567
571
573
570
570
569
567
566
567
567
566
563
562
561
558
556
556
552
548
547
548
548
548
544
541
539
538
536
537
538
537
537
537
537
537
535
535
535
535
535
535
535
536
535
534
533
532
534
537
536
536
535
535
533
533
534
535
535
535
536
535
533
534
536
538
539
540
538
536
537
549
573
604
640
679
719
755
780
797
783
739
685
625
582
570
568
562
553
534
512
493
475
462
457
457
459
463
471
476
482
491
501
512
521
528
534
538
542
546
548
548
548
548
550
552
552
554
555
556
557
556
557
557
558
559
562
563
563
565
563
562
563
564
563
564
566
567
567
568
570
571
571
571
571
572
573
574
576
577
576
577
578
579
579
581
582
583
585
587
589
591
593
596
597
597
598
600
604
607
610
613
615
616
620
623
627
630
635
640
643
646
647
651
656
658
662
666
668
673
674
677
679
682
683
683
684
684
685
686
685
684
681
680
675
671
666
661
656
650
645
639
633
628
622
615
611
606
600
597
592
589
586
581
577
574
571
569
567
565
563
562
560
559
557
555
554
552
552
552
552
551
550
549
548
549
548
548
548
550
549
548
547
547
547
547
547
547
549
548
548
549
548
548
547
547
548
549
549
549
550
549
549
548
547
547
547
548
547
549
550
550
549
547
546
547
547
548
550
550
550
548
547
547
547
547
548
547
548
548
548
547
548
547
546
547
546
545
547
547
548
546
545
544
543
543
543
543
544
545
545
544
544
543
543
544
543
543
545
544
544
543
542
542
541
542
540
542
543
544
544
544
543
542
542
541
541
540
541
542
542
542
542
541
542
541
542
544
544
544
544
543
541
542
543
546
552
558
562
566
567
563
562
562
562
564
566
564
562
563
565
565
568
571
573
576
578
578
574
572
571
571
569
568
569
567
565
563
561
558
556
554
553
550
550
549
547
543
542
542
541
541
542
541
541
539
539
539
540
541
540
540
538
539
538
537
538
538
538
539
540
539
539
540
539
538
538
539
539
539
540
539
540
540
541
542
542
542
542
541
539
543
561
587
622
661
702
748
787
816
828
802
746
680
615
576
562
556
548
533
510
488
472
459
449
449
456
463
469
476
484
495
507
517
526
534
540
545
549
552
554
555
556
556
558
558
560
562
562
564
563
564
565
565
567
566
566
568
568
570
571
571
570
570
571
570
573
574
574
575
575
576
577
576
577
579
580
581
582
583
583
584
585
585
586
588
590
591
592
593
595
595
595
598
600
603
606
608
611
612
614
617
619
620
624
627
631
635
639
643
645
649
651
655
660
663
667
671
676
678
681
684
686
687
688
690
691
693
694
695
694
694
690
688
684
680
678
674
668
663
657
650
644
638
631
626
621
616
611
608
604
597
591
587
584
582
579
576
574
572
569
567
565
562
561
561
560
559
558
557
555
555
554
552
553
554
553
552
555
554
552
551
551
551
551
551
551
552
553
552
551
552
550
549
549
549
550
550
552
552
552
552
552
551
552
551
552
553
552
553
553
552
552
551
550
550
550
551
551
551
552
552
550
550
549
549
548
549
550
550
548
547
547
547
545
546
546
545
547
547
546
545
544
543
542
542
543
544
543
544
546
545
543
542
542
542
542
542
544
544
541
542
542
541
541
541
542
542
542
541
542
542
541
539
538
540
540
540
540
541
540
539
537
536
538
539
540
540
541
540
537
537
538
537
538
537
537
538
538
539
539
539
539
539
539
538
537
538
539
538
538
537
537
537
537
538
538
538
540
539
538
539
538
538
540
541
543
544
546
550
553
555
556
554
555
555
554
555
554
554
553
557
561
563
564
567
567
570
570
567
564
562
563
564
564
563
562
560
558
555
551
549
548
547
545
544
545
544
541
539
538
538
536
536
535
535
536
537
537
537
536
535
533
532
532
533
534
535
535
536
536
536
534
535
535
535
535
534
534
535
535
535
534
534
535
535
537
541
542
542
541
538
537
546
565
594
630
668
710
750
781
803
805
766
712
650
597
575
570
563
554
537
514
494
478
464
457
458
460
463
470
475
479
488
499
509
519
529
536
538
542
546
548
550
549
550
551
553
556
556
556
557
557
557
556
555
558
561
561
562
563
561
561
562
563
564
565
566
567
569
569
568
567
568
570
572
572
573
575
574
575
575
576
575
577
579
582
584
585
586
585
586
587
590
591
593
596
597
598
600
603
605
607
608
610
614
618
622
625
627
630
632
636
641
646
650
653
656
661
665
666
668
671
672
675
679
682
686
687
687
688
687
687
686
687
685
683
681
677
671
667
661
653
647
642
637
633
627
621
614
609
604
600
594
590
582
580
578
575
573
570
567
564
560
559
558
559
557
554
555
554
552
550
547
548
548
546
546
546
548
548
548
548
547
544
545
547
546
545
544
544
545
544
544
545
547
547
546
545
545
547
548
546
543
543
545
547
548
548
547
546
546
546
546
546
547
548
548
546
544
545
544
545
544
545
546
546
546
547
548
547
546
545
545
545
545
544
544
545
545
543
543
542
543
545
546
543
542
542
543
542
541
539
540
540
540
542
542
543
542
541
541
541
540
540
540
541
540
538
540
541
540
540
540
540
539
538
537
539
539
538
537
537
537
537
538
538
539
539
538
537
537
539
537
537
536
537
539
539
537
536
537
537
536
535
535
535
535
537
537
539
537
536
538
542
544
546
548
550
553
556
556
555
554
553
553
553
554
552
554
557
559
563
565
565
566
566
565
562
561
561
560
559
556
556
555
553
552
548
545
544
544
543
541
540
540
537
536
536
535
535
534
532
533
533
535
534
535
534
533
532
532
532
532
533
534
533
531
532
533
532
531
531
532
533
532
532
532
534
533
531
530
530
531
534
536
538
538
537
536
532
532
547
570
603
639
678
719
757
782
797
784
739
683
623
582
573
571
564
555
535
512
492
478
465
457
458
460
466
472
473
479
489
499
510
519
527
534
539
543
545
546
547
547
549
552
553
554
555
555
555
554
555
556
556
558
559
560
561
561
561
562
561
562
562
563
566
567
567
566
568
568
567
569
570
572
572
573
574
573
574
575
576
577
579
580
580
582
584
584
586
587
590
592
594
596
598
599
602
603
604
606
609
612
615
618
624
626
629
632
636
639
642
645
650
655
659
662
665
667
670
672
673
676
679
681
683
685
685
686
685
684
683
681
679
676
674
670
665
661
654
647
641
635
630
625
622
617
611
605
601
596
589
586
584
580
577
575
572
570
567
565
562
559
559
558
557
556
554
552
550
549
550
550
548
548
549
549
549
548
549
547
547
547
547
547
545
547
547
547
547
546
546
545
545
547
549
549
550
550
549
548
548
547
547
548
549
551
550
548
548
547
546
546
547
548
549
548
547
546
546
546
547
547
546
547
549
548
547
547
545
546
546
547
546
547
548
548
547
546
545
545
545
545
546
546
546
547
546
545
544
543
543
544
544
544
544
545
545
541
542
543
543
542
542
543
544
543
543
544
542
541
541
542
543
542
542
543
542
541
542
541
541
540
541
543
543
543
543
543
541
541
540
539
542
542
542
542
541
541
541
540
539
540
541
542
542
542
542
540
541
542
543
544
547
550
554
557
559
559
560
560
560
562
562
561
560
560
560
561
565
569
572
573
574
574
572
572
569
565
566
568
566
565
563
561
559
558
555
551
549
549
547
546
546
545
544
543
541
541
540
539
538
538
538
540
540
538
538
538
537
537
536
536
536
535
536
537
537
536
535
535
536
537
537
538
539
540
539
539
537
537
537
540
542
543
543
541
539
537
537
547
569
601
639
680
723
766
800
822
821
779
719
650
597
572
563
555
543
524
500
480
466
455
450
455
462
466
471
476
483
494
506
517
527
535
542
546
551
553
552
553
555
555
556
559
560
560
560
560
560
562
563
564
565
566
566
565
566
567
568
568
568
570
570
572
572
572
573
573
573
574
573
574
576
578
580
579
580
580
580
581
583
584
585
586
589
590
591
593
593
594
596
598
599
601
603
605
606
609
611
614
616
619
623
627
630
633
637
639
643
647
650
654
656
660
665
669
671
674
677
680
683
686
688
690
691
693
694
693
691
690
690
689
687
684
680
674
668
662
655
649
644
640
634
628
623
618
614
608
602
597
592
588
586
582
578
576
573
571
567
566
563
561
561
560
559
557
557
555
554
553
552
552
552
553
552
552
550
549
549
550
549
548
550
549
548
548
549
548
547
546
548
549
549
550
551
549
548
548
549
548
548
549
549
549
550
550
550
548
550
550
549
549
549
549
549
550
550
549
551
549
548
549
548
547
547
548
547
545
545
546
546
546
546
546
547
545
544
545
545
543
542
542
543
544
544
544
544
542
541
541
541
541
542
542
543
542
542
541
540
541
540
541
541
541
540
540
539
539
540
539
540
541
539
539
538
538
537
536
536
536
536
537
537
539
540
539
537
536
535
536
537
537
538
537
537
537
537
536
535
536
536
535
537
538
539
538
536
537
537
537
536
536
536
536
536
535
536
538
536
535
533
535
536
537
538
537
535
535
535
536
538
540
542
544
547
550
552
553
553
554
553
553
552
552
553
554
556
560
563
566
567
566
567
565
564
560
560
561
561
560
560
559
558
555
552
552
547
546
545
542
541
541
540
538
538
537
535
535
535
535
534
535
535
535
535
533
533
533
532
533
533
533
534
533
534
535
534
533
532
533
534
532
533
533
535
535
534
533
532
532
534
536
536
538
537
536
533
533
542
563
590
626
663
703
748
781
801
808
777
723
663
606
578
572
567
557
541
517
496
481
468
459
457
460
464
468
473
477
485
496
507
516
524
531
538
542
542
543
546
547
549
551
553
553
554
554
553
554
556
557
557
557
558
559
561
561
560
560
560
560
562
564
564
566
567
567
567
567
568
569
571
572
573
575
574
573
573
573
575
577
576
577
581
584
585
584
585
588
588
589
591
593
595
598
600
600
602
605
606
609
612
616
619
623
626
627
630
636
640
642
647
651
654
658
662
664
667
671
673
676
679
682
684
685
687
688
689
689
691
689
685
684
681
678
675
671
665
659
653
647
640
635
630
626
620
613
606
599
592
589
588
586
582
578
574
570
566
563
560
558
558
559
557
555
554
552
549
547
545
545
545
546
548
549
549
546
544
545
545
544
543
543
543
546
545
542
543
543
542
544
544
543
544
546
547
547
547
546
543
542
544
546
546
546
544
541
542
542
543
545
544
542
545
545
545
544
544
545
544
544
544
545
544
544
544
545
544
542
541
541
542
543
544
544
544
544
543
540
540
541
542
543
542
541
541
540
539
539
540
541
541
541
539
539
539
538
537
536
536
537
538
538
537
538
537
536
536
535
534
535
535
533
534
534
537
537
536
534
534
534
534
534
535
537
536
535
534
535
535
534
534
535
535
536
535
533
533
533
534
534
535
534
533
532
532
533
533
532
533
533
533
535
537
539
540
543
547
549
548
548
547
548
551
551
549
548
548
546
549
553
558
561
562
564
562
560
557
554
554
554
555
556
555
554
549
546
545
542
539
539
539
537
537
535
534
532
530
530
530
530
530
532
530
532
529
526
528
527
528
527
528
529
529
528
527
526
527
527
526
527
527
527
527
529
529
526
527
528
528
528
529
530
531
532
532
532
531
531
528
529
542
566
598
633
672
713
752
780
799
790
747
691
629
581
565
562
554
544
526
503
485
471
458
452
453
454
459
463
467
474
485
498
509
516
523
529
534
537
540
542
544
546
547
546
547
549
550
550
551
550
549
552
554
554
554
553
555
554
555
557
558
558
