614
616
618
618
617
615
613
611
612
612
612
612
610
609
610
607
606
606
607
606
607
609
609
608
608
609
608
609
612
614
615
618
623
627
627
627
626
626
624
624
622
623
623
625
629
634
636
636
636
635
635
633
632
631
629
629
632
629
626
624
622
617
615
613
613
610
608
609
608
605
602
602
604
602
601
603
601
599
599
600
599
600
600
601
600
599
599
599
598
598
599
601
601
600
600
599
596
597
598
598
597
598
601
601
600
599
600
600
601
602
602
600
598
598
601
616
643
678
716
755
798
839
868
883
861
809
746
685
646
635
629
619
609
589
565
547
533
522
519
522
524
530
536
541
548
557
569
578
586
594
601
606
609
611
613
614
615
615
615
616
618
620
621
622
622
622
622
623
624
624
624
627
627
627
628
628
628
628
630
630
632
634
636
636
635
635
634
636
635
635
637
640
642
643
643
644
645
646
648
650
652
654
656
657
659
661
662
664
666
667
670
672
674
678
680
683
686
688
692
696
701
707
711
715
716
717
721
724
729
733
735
738
742
743
744
746
749
751
751
750
750
751
752
750
745
740
738
732
727
724
719
713
709
704
698
693
686
679
675
670
665
661
657
654
649
644
642
639
636
632
630
628
627
626
625
622
621
618
617
618
619
620
619
618
615
614
613
611
612
611
612
613
613
611
611
612
613
613
612
611
613
613
612
612
612
613
613
612
613
613
613
613
615
617
614
612
614
615
615
614
615
616
616
615
614
614
613
611
610
614
614
615
616
615
614
614
614
614
613
613
615
615
614
615
613
612
611
612
613
612
610
611
611
610
610
610
611
611
610
610
611
611
610
610
610
610
610
609
609
609
610
610
608
608
607
608
607
608
609
608
608
607
607
608
607
606
607
606
606
608
607
606
608
608
607
606
605
605
605
605
605
604
604
605
604
602
602
604
605
605
606
607
606
605
605
604
604
603
605
606
604
603
604
604
603
603
604
607
609
612
615
619
621
622
624
623
622
621
622
620
620
620
620
621
625
628
630
630
631
631
630
628
626
625
626
627
624
621
620
618
617
615
611
610
610
609
607
608
606
603
602
603
601
601
600
601
601
599
600
601
600
600
599
597
598
599
598
598
598
599
601
602
599
599
599
597
597
597
597
599
600
601
601
598
599
599
599
602
603
604
602
602
600
598
605
623
652
688
727
769
812
847
869
877
841
786
724
668
641
635
630
620
607
585
562
545
532
522
521
524
527
533
536
542
552
563
574
582
590
597
604
608
610
612
614
614
615
617
618
620
621
620
621
622
622
622
623
624
626
628
629
629
629
629
629
630
629
629
632
634
635
636
636
635
636
636
636
638
638
640
641
643
644
644
643
645
646
647
649
651
653
654
655
657
658
660
661
663
668
671
673
675
677
679
682
685
689
692
696
700
704
708
710
714
716
720
724
728
732
736
739
743
743
745
748
749
749
752
753
754
754
752
750
748
746
742
738
734
729
725
720
713
708
702
696
692
687
681
676
673
669
662
657
655
652
647
643
641
640
637
636
634
631
629
626
626
624
623
624
624
624
622
621
619
618
617
618
619
620
618
618
617
617
617
617
617
617
618
618
618
619
618
616
616
616
617
617
617
618
619
619
617
615
616
618
616
617
617
617
619
617
617
618
617
615
616
617
616
616
617
618
618
617
616
616
615
615
616
617
615
615
615
614
612
611
612
614
615
615
615
613
611
612
612
612
611
611
611
612
611
610
610
611
610
610
610
610
610
610
611
611
609
609
610
609
608
609
610
609
610
610
609
608
608
607
607
608
607
607
608
608
608
606
605
606
606
607
608
607
607
606
606
606
604
605
605
605
607
606
606
606
605
605
605
606
607
607
606
608
607
606
606
606
605
605
606
606
605
607
608
607
605
606
606
604
605
606
606
607
606
606
606
605
606
606
609
614
617
620
623
625
625
625
623
622
624
623
623
623
623
624
627
630
633
634
635
634
635
634
631
629
629
629
630
628
625
624
622
620
617
615
614
614
613
611
609
608
606
605
605
605
605
603
602
602
602
602
604
604
603
602
601
600
600
602
603
603
603
603
604
603
603
603
602
601
601
604
603
605
604
603
603
603
604
605
606
608
607
607
608
604
600
606
624
651
688
729
773
818
859
888
902
873
817
751
687
648
636
629
618
601
577
556
538
524
516
518
526
531
535
539
546
557
569
580
591
599
605
610
614
616
620
620
620
622
622
624
624
627
626
624
626
626
627
628
630
630
631
632
631
631
633
633
633
633
636
636
637
638
639
638
639
640
639
640
642
644
645
645
646
647
647
648
650
651
652
655
657
660
661
661
661
662
664
666
668
671
674
676
679
681
682
685
688
693
696
699
703
707
710
713
717
721
727
729
732
736
742
744
745
747
750
752
754
757
758
760
761
761
759
758
756
754
752
749
746
741
736
731
725
718
711
704
698
694
689
683
678
674
668
663
658
655
650
646
643
642
641
638
635
631
630
627
627
626
626
625
621
621
620
620
618
616
615
616
616
616
616
616
616
616
614
613
612
613
615
617
618
617
615
616
614
615
616
615
616
616
617
618
617
616
615
615
616
616
617
618
619
619
618
617
616
616
616
617
617
617
618
617
616
615
614
615
614
616
617
617
614
614
615
613
613
614
614
614
613
613
613
614
613
612
613
613
612
612
612
613
612
612
611
611
611
610
609
609
611
611
611
610
610
610
610
610
610
610
610
611
610
609
611
610
609
608
607
607
610
611
609
608
607
608
608
607
606
606
606
607
608
608
609
607
607
607
607
607
606
605
605
605
605
606
605
604
605
605
608
607
605
605
604
604
604
605
604
606
606
606
608
608
606
605
605
604
604
606
606
606
605
604
603
602
602
603
605
604
606
606
606
606
604
604
605
606
607
610
612
615
618
621
622
625
627
626
623
621
620
621
621
620
622
625
628
630
632
635
636
633
631
629
627
626
628
627
624
624
623
621
620
617
613
614
613
612
611
610
609
608
607
605
603
603
604
607
607
606
606
605
605
604
602
602
602
601
603
603
605
606
606
606
604
603
603
603
602
605
606
606
605
606
605
606
606
608
607
609
611
610
608
609
606
603
607
624
652
688
728
770
811
847
873
887
862
809
751
692
658
648
645
637
623
601
579
561
548
536
531
532
536
540
545
549
557
567
577
589
597
605
610
613
615
617
621
624
627
628
630
629
626
627
628
628
628
630
632
634
634
636
636
636
636
638
640
638
637
639
640
640
640
642
642
641
642
645
645
645
648
649
648
649
651
653
655
656
656
656
657
659
663
662
663
664
664
666
669
673
676
677
678
681
681
684
689
694
697
698
702
704
708
710
716
721
724
727
734
737
742
744
745
747
749
750
754
758
763
767
769
767
765
763
761
760
758
756
755
752
749
744
736
732
723
716
711
705
701
696
691
683
680
676
671
665
660
656
654
650
648
645
642
641
637
635
633
630
631
631
630
629
626
626
624
623
624
624
623
623
622
622
622
622
622
623
624
621
620
622
622
621
621
621
622
621
622
623
622
623
624
621
620
618
619
622
623
622
623
624
626
626
624
623
620
623
622
622
625
625
623
623
621
619
619
621
624
623
621
622
622
623
623
621
620
621
620
622
621
622
620
619
619
617
617
618
617
618
621
622
621
619
618
617
617
618
618
617
618
618
618
619
619
617
617
615
617
618
618
617
616
614
614
613
613
613
614
614
615
615
613
613
613
612
612
613
613
615
616
613
611
611
612
612
612
613
612
612
614
615
613
614
612
612
613
612
612
614
614
613
613
613
613
613
612
611
612
614
614
612
612
611
611
611
611
610
610
611
612
614
611
611
611
611
611
612
612
612
611
611
611
611
611
610
610
613
618
621
624
627
628
629
630
630
632
628
627
628
626
626
625
626
630
633
634
636
636
638
638
638
634
632
631
631
631
631
629
628
627
626
624
622
620
620
618
616
616
615
614
612
610
610
611
609
609
610
613
612
611
611
609
607
607
606
606
609
609
610
610
609
608
608
608
610
608
609
610
609
609
610
610
609
609
610
610
610
611
614
616
616
613
612
610
609
618
640
671
708
747
789
832
866
889
891
855
798
736
681
655
647
641
631
614
591
570
555
542
533
533
535
538
543
549
553
563
575
586
596
605
612
617
621
622
626
628
630
631
632
631
632
632
632
632
634
634
636
637
637
638
638
638
638
638
640
641
642
642
644
645
645
645
645
646
647
648
649
650
651
652
652
653
654
654
657
658
659
661
662
663
664
666
667
667
669
671
672
675
678
679
681
683
685
687
689
694
698
701
704
707
710
714
715
720
724
730
734
738
743
745
747
750
752
754
757
760
763
766
768
770
770
769
768
768
766
763
761
759
754
749
744
738
733
727
721
715
710
704
699
694
688
683
680
676
669
665
662
658
656
652
649
646
644
642
639
639
639
636
635
635
633
631
630
630
629
629
629
629
629
628
627
626
626
627
627
628
629
629
627
626
626
626
625
625
625
626
626
627
628
629
628
628
626
626
626
626
627
627
626
627
626
626
625
626
627
627
627
628
628
627
627
626
626
626
626
625
627
627
626
626
624
623
623
624
624
624
623
623
625
624
623
624
624
623
623
624
624
625
624
623
622
621
621
621
622
622
623
624
622
622
621
620
620
621
622
622
622
621
622
622
621
620
620
620
621
621
621
623
622
620
619
619
618
619
620
618
619
619
618
619
618
618
618
618
618
619
621
620
619
619
618
618
618
617
618
619
619
620
619
618
619
618
618
618
619
620
619
621
621
620
618
617
617
616
617
619
622
622
620
619
617
614
614
615
616
618
619
618
618
617
616
616
617
618
618
620
622
626
627
630
633
637
637
638
640
638
636
635
634
632
631
630
631
633
638
640
641
642
643
642
641
640
637
637
637
638
638
637
636
632
630
628
627
626
625
623
622
623
621
619
616
614
614
613
613
615
616
614
614
615
613
612
613
612
612
613
615
614
614
613
612
613
614
614
613
613
614
615
615
614
614
613
614
615
616
616
616
617
618
618
618
617
615
614
617
631
657
691
732
772
816
862
897
917
906
855
791
721
670
649
641
631
617
596
572
554
538
528
527
531
537
543
548
554
565
579
591
601
608
614
619
622
626
629
631
632
634
635
636
635
636
638
637
637
639
641
641
641
641
641
641
642
643
644
645
646
648
648
648
646
647
649
650
650
650
652
653
653
653
654
656
655
656
658
659
662
663
664
665
665
665
667
669
671
672
674
676
677
679
682
685
687
689
692
694
697
701
705
708
711
714
718
722
727
731
736
740
743
747
750
754
756
759
763
765
768
770
773
773
773
775
776
775
773
773
770
767
765
759
753
747
741
736
731
726
719
713
706
700
694
689
684
679
674
671
667
663
659
655
651
648
646
645
644
642
640
639
638
636
635
633
631
631
630
631
631
630
631
630
629
629
627
626
628
629
629
628
628
627
627
626
627
628
628
628
629
628
627
628
626
624
625
627
627
627
628
627
627
627
626
626
628
628
629
628
630
630
628
627
627
626
627
628
628
628
629
629
627
625
626
626
626
626
627
627
626
626
625
625
624
624
623
624
625
624
623
622
622
622
623
622
623
624
623
623
622
620
620
620
621
621
622
622
622
622
621
622
621
620
619
619
619
619
622
622
621
619
619
619
620
620
620
620
620
622
621
620
619
620
619
619
619
619
620
620
620
620
617
617
618
618
617
617
619
619
619
618
618
618
618
619
619
620
619
619
619
619
618
617
616
618
618
618
618
619
618
617
617
617
615
617
618
618
619
618
618
617
617
616
615
617
619
619
618
620
621
623
626
629
631
633
635
637
637
637
634
633
632
632
632
631
632
635
638
640
641
642
642
641
641
640
639
638
638
639
638
633
632
632
631
630
628
626
626
626
623
622
620
619
618
617
616
617
618
617
615
617
617
615
614
614
614
616
615
614
613
614
614
613
614
613
614
614
615
615
615
615
614
614
614
615
614
614
616
618
616
615
617
618
618
617
617
616
616
626
648
678
718
760
802
844
875
897
893
854
801
738
683
658
653
647
637
620
595
576
558
545
536
537
541
545
550
555
563
572
582
593
601
608
614
618
622
626
629
631
632
632
633
634
635
635
636
637
639
640
641
640
641
641
642
643
643
644
646
646
646
645
646
648
648
649
650
650
652
654
654
653
654
655
655
655
657
659
662
663
664
665
665
665
666
668
672
673
674
675
676
676
678
681
684
687
691
695
698
700
701
703
706
709
712
717
721
725
730
734
735
739
743
746
748
752
757
761
764
766
767
768
769
772
772
773
774
773
770
768
764
761
757
751
746
742
737
731
725
718
712
706
699
694
689
685
680
676
671
666
662
661
656
653
649
648
646
644
641
640
636
635
634
634
633
631
632
631
630
629
629
628
627
626
626
627
626
627
628
628
627
625
626
625
625
625
626
626
624
625
625
625
624
625
624
625
626
626
628
627
626
626
626
626
626
627
628
628
627
626
626
626
625
625
625
624
624
627
626
625
625
626
624
625
625
626
627
627
626
624
623
622
622
622
622
622
623
623
623
622
622
622
622
624
623
622
622
622
621
620
620
620
620
621
622
621
622
621
621
619
619
619
619
619
619
619
620
619
618
618
619
618
618
617
619
618
618
618
619
619
618
618
617
616
618
618
619
619
618
617
616
616
617
617
617
618
619
618
617
617
615
614
616
616
616
617
616
616
616
616
615
616
617
616
616
616
616
618
615
614
615
615
615
615
617
617
617
616
617
615
615
615
614
615
616
617
617
616
617
617
619
622
624
628
632
634
635
635
635
632
631
630
629
629
629
630
632
636
637
638
638
639
640
639
638
637
636
635
635
635
633
631
629
630
629
627
625
624
623
620
619
619
618
615
614
614
615
615
615
613
611
612
613
612
613
614
613
613
613
613
613
610
612
613
613
613
614
614
613
612
613
612
612
612
613
615
615
615
614
613
613
616
618
618
617
617
616
613
617
635
663
699
740
782
827
868
897
909
882
829
765
703
662
648
643
635
622
598
572
553
541
532
532
536
542
547
553
558
566
577
588
597
605
612
619
624
628
629
631
631
633
633
634
636
637
638
639
639
639
640
640
640
641
642
644
645
646
645
644
645
646
648
649
649
651
651
652
652
652
651
651
653
653
655
657
657
658
658
659
659
661
663
665
665
667
670
670
671
672
675
676
677
679
682
685
687
689
692
694
697
700
704
709
713
716
720
723
728
730
734
739
742
746
750
753
757
760
763
763
765
767
770
772
774
774
775
775
774
773
768
763
761
756
752
747
740
736
730
724
718
712
706
701
696
692
686
681
675
671
668
665
660
657
655
652
650
649
646
643
641
641
639
638
637
637
637
635
634
633
632
632
632
632
633
633
633
632
631
631
630
631
631
630
632
632
632
632
631
631
631
632
632
632
633
632
632
632
633
632
630
629
631
631
633
633
631
631
631
631
631
630
631
631
631
632
631
632
631
630
629
630
630
631
632
631
630
630
630
629
629
628
629
630
630
631
631
630
629
628
628
628
628
629
630
629
628
628
628
627
626
627
626
627
629
628
628
627
624
624
624
624
623
624
626
626
624
625
624
624
624
624
625
625
625
623
624
624
624
623
623
623
624
625
626
626
625
623
623
624
624
624
625
625
625
625
624
623
624
624
625
626
626
625
626
626
625
624
624
623
623
624
623
625
625
624
624
625
625
624
623
625
626
625
626
627
626
623
622
623
623
623
624
625
624
626
626
625
624
624
625
626
627
626
626
625
625
625
624
624
625
626
630
632
636
640
643
643
644
644
643
642
641
641
640
639
638
637
640
643
646
646
647
650
651
649
648
648
645
643
644
643
643
642
642
640
637
634
631
629
630
630
630
629
627
625
622
621
620
620
620
621
619
620
620
620
619
618
618
618
619
620
620
620
620
620
620
619
618
619
619
619
619
620
621
621
620
620
620
620
620
620
620
624
624
624
623
620
619
617
622
642
669
706
747
791
836
876
905
919
891
836
772
709
668
653
647
637
621
597
574
556
543
535
536
542
547
551
555
561
571
585
597
607
614
620
624
627
630
632
634
635
636
638
640
640
638
638
640
640
641
642
645
646
644
645
646
647
647
647
647
649
649
650
651
652
651
652
652
652
655
656
657
658
658
659
659
660
662
664
664
666
667
668
669
669
670
671
672
674
676
678
680
683
684
685
687
689
690
694
696
699
704
708
711
714
717
719
721
727
731
736
740
745
749
752
755
757
760
763
767
769
772
774
775
776
777
777
776
776
776
774
771
768
762
757
751
746
741
736
728
722
716
711
706
700
694
687
683
680
676
673
668
664
660
657
653
652
649
647
645
644
642
640
639
639
638
637
636
634
634
634
634
633
633
633
631
630
630
631
631
632
631
631
632
631
628
628
628
629
630
631
632
632
631
629
627
628
628
630
630
630
630
631
631
631
630
630
629
630
631
631
631
631
630
630
631
630
630
630
630
630
628
628
629
629
628
629
626
626
627
628
629
629
628
626
627
626
625
625
626
627
627
626
624
623
623
623
623
623
623
624
623
624
623
623
622
622
623
623
623
623
622
623
624
623
621
622
623
622
622
621
622
622
621
621
620
618
619
619
620
620
621
621
619
618
618
619
620
621
621
621
620
620
619
619
618
618
620
620
619
621
621
620
619
618
618
618
620
621
622
623
622
621
621
620
618
618
619
618
619
621
622
621
620
621
620
619
618
620
621
623
622
620
620
619
619
618
618
620
623
623
622
621
621
622
625
625
627
630
632
635
638
639
640
640
638
636
637
636
634
632
633
636
639
642
643
643
642
644
646
646
643
641
642
643
641
640
638
636
634
634
633
630
629
629
627
625
626
624
622
622
622
620
619
618
618
617
617
618
619
619
619
617
615
616
617
617
618
617
619
617
617
617
616
616
617
618
618
618
618
618
617
617
617
616
617
618
620
622
622
620
619
617
617
624
644
672
710
751
793
836
871
892
896
859
806
744
689
664
659
653
641
627
604
582
565
552
544
543
545
549
553
558
562
569
579
590
600
609
617
622
625
627
630
631
633
634
635
637
639
640
640
640
640
640
640
641
641
643
645
644
646
647
646
646
647
648
648
649
650
650
650
651
651
651
652
655
656
656
657
659
660
660
660
661
662
665
667
669
669
670
671
673
672
674
677
678
680
683
686
687
689
692
693
696
698
700
705
711
715
719
722
723
727
731
736
740
742
747
750
753
756
759
761
763
767
769
770
772
772
773
773
773
771
767
766
763
760
756
751
747
741
736
730
722
716
711
706
700
695
691
685
681
675
669
666
663
662
659
656
652
650
648
645
642
640
641
640
639
639
638
635
633
632
631
631
631
631
633
630
629
631
630
628
630
629
629
630
629
629
629
628
629
628
629
629
630
631
630
631
631
631
630
631
629
629
630
631
633
632
630
631
630
630
631
631
632
632
631
632
631
632
631
630
631
630
630
632
632
631
630
632
632
630
629
629
630
630
630
629
627
628
627
627
627
626
626
626
628
629
626
624
624
625
625
625
626
626
627
627
627
625
625
624
624
623
623
625
625
626
625
624
625
625
623
622
623
623
623
623
623
623
623
623
623
623
623
624
624
623
621
621
621
620
620
620
622
623
622
622
621
621
622
621
621
621
622
622
623
621
620
620
620
621
621
622
622
622
622
621
622
620
620
621
621
622
622
623
623
622
621
619
621
622
621
622
623
623
624
624
623
622
623
625
629
630
633
636
640
641
643
644
643
641
640
639
639
638
637
639
640
643
645
645
646
646
648
648
646
644
642
641
642
641
640
640
639
639
636
633
631
631
629
627
628
627
626
625
623
622
620
621
621
622
621
622
622
622
623
622
621
620
620
619
619
620
622
622
622
621
621
621
620
621
621
621
622
622
622
622
623
623
621
622
622
624
627
626
625
624
621
623
640
667
702
743
785
831
874
903
918
896
841
778
715
673
657
649
641
627
603
579
561
548
539
539
544
548
555
558
562
572
584
596
605
614
621
628
631
633
635
637
638
639
639
639
641
643
645
644
645
645
646
645
647
650
650
651
649
650
650
649
650
651
653
653
654
655
657
656
656
658
657
657
659
661
663
664
665
665
665
665
667
669
670
672
673
675
676
677
678
679
681
683
685
687
690
692
693
695
698
700
702
706
710
713
718
722
725
730
733
736
740
744
747
754
758
761
764
766
769
770
774
776
778
780
781
783
784
784
782
779
775
773
770
767
764
757
751
745
739
731
724
718
713
709
704
699
694
687
682
678
675
672
668
666
664
659
656
655
652
650
649
648
647
645
645
643
642
641
640
639
639
638
639
640
639
637
637
637
636
636
637
636
636
637
637
637
637
636
637
636
635
635
636
637
637
636
637
637
637
636
636
636
637
636
636
636
636
636
638
637
637
638
638
638
638
638
638
636
636
636
636
636
637
638
637
637
637
636
635
635
635
635
636
636
635
635
635
634
635
634
633
634
633
633
633
634
633
633
632
631
632
632
633
633
632
631
631
631
630
630
630
631
632
632
632
631
630
630
629
630
630
630
631
630
630
629
630
631
630
630
631
631
630
630
629
631
629
628
629
630
629
629
629
628
629
628
628
628
628
627
628
629
629
629
630
629
629
629
627
627
627
627
628
629
629
629
628
628
628
628
628
627
628
629
629
629
629
628
627
627
627
629
633
631
628
627
627
628
628
629
630
631
632
636
638
637
642
647
647
648
649
649
648
646
646
643
642
641
644
647
648
652
653
655
654
653
653
650
650
649
647
649
649
647
648
646
643
642
638
636
637
637
635
636
634
631
629
627
627
629
629
628
627
627
627
626
623
627
628
626
628
627
627
627
627
624
625
624
623
625
625
624
625
625
626
626
625
623
624
626
627
626
627
630
629
630
631
628
627
625
627
640
664
699
738
780
824
867
900
922
910
863
803
735
686
665
656
647
636
618
593
574
559
548
542
546
551
556
561
566
574
586
597
608
614
623
632
634
635
639
639
641
642
643
644
643
643
644
644
646
648
649
651
651
650
650
650
651
655
654
653
655
656
656
657
658
659
658
658
659
660
660
663
663
664
665
664
665
666
669
670
672
672
672
674
676
674
676
680
682
682
685
686
688
689
691
692
692
696
699
703
707
709
713
716
721
722
724
728
734
737
741
746
748
752
756
759
763
768
773
774
773
777
779
779
781
781
783
783
783
783
782
779
774
771
767
761
754
751
742
736
730
726
719
712
706
700
695
691
687
684
679
677
674
668
664
661
658
656
655
654
653
651
651
647
645
643
642
642
640
641
642
641
639
639
637
637
638
636
636
638
638
636
637
638
638
635
635
636
636
639
639
638
638
637
637
636
636
638
637
638
639
639
637
637
637
637
639
638
640
639
639
637
636
638
636
636
640
639
640
639
639
640
640
641
640
637
636
635
636
637
637
637
637
635
635
635
634
635
636
638
638
638
636
635
634
635
635
635
636
636
637
637
635
633
632
632
634
634
633
634
635
633
634
633
633
633
633
633
633
633
633
632
631
631
629
629
631
632
632
633
633
631
629
630
629
630
631
632
633
631
632
633
633
631
629
629
630
632
632
632
631
631
632
631
630
630
631
632
632
632
632
633
633
632
630
630
633
632
632
632
633
632
631
630
631
631
631
632
633
634
633
631
631
631
633
633
633
633
636
638
639
641
644
646
647
649
649
649
650
649
646
646
646
645
643
643
649
653
655
655
655
654
654
657
654
653
652
651
653
652
651
649
647
645
644
642
640
640
641
641
640
638
634
631
630
631
632
633
632
631
631
629
629
629
629
629
629
627
630
630
630
629
628
628
627
628
628
628
627
630
632
630
629
627
628
628
629
631
630
630
630
632
633
632
633
631
628
630
639
659
691
726
765
807
846
876
900
901
862
808
749
696
673
669
665
656
642
619
597
581
568
560
558
558
560
564
570
575
584
594
606
613
619
625
631
637
640
643
645
647
646
646
648
648
645
647
650
653
651
652
652
652
654
654
654
657
657
658
660
660
661
660
659
659
661
663
665
667
667
667
667
668
668
670
669
672
675
675
676
677
677
678
678
679
681
684
686
689
690
691
692
692
693
697
702
703
706
708
709
713
718
720
722
723
727
732
739
744
748
751
755
757
761
764
766
769
774
777
781
784
783
783
785
787
788
788
789
787
785
782
779
774
769
764
757
753
748
744
737
731
723
716
712
707
702
697
693
689
684
680
677
672
669
666
663
661
660
658
657
655
651
652
651
649
649
649
647
647
648
647
645
643
642
642
642
642
642
642
643
643
642
642
643
641
640
642
643
644
644
645
642
641
641
642
642
642
644
644
645
644
644
642
642
642
642
641
643
645
646
644
645
643
642
643
642
642
643
644
645
643
643
643
642
642
642
641
641
641
642
642
641
641
641
641
640
640
643
640
639
641
639
637
637
638
639
640
641
640
640
638
639
638
637
637
639
638
638
638
637
636
636
635
636
637
637
636
637
638
637
637
637
635
635
635
636
637
636
636
636
636
636
634
632
633
634
635
634
635
635
634
632
632
634
634
634
634
635
635
635
634
634
632
632
633
635
633
633
633
633
633
633
633
632
633
633
632
633
634
634
634
634
634
632
633
634
635
635
635
635
633
633
635
633
633
633
634
633
635
634
634
635
636
641
645
648
651
653
654
653
652
651
650
648
647
649
649
650
651
655
658
656
656
658
658
659
659
657
657
656
654
655
652
651
650
650
649
647
646
645
644
642
639
639
637
635
635
636
636
635
635
633
635
635
634
633
634
634
633
632
631
631
632
632
631
631
632
633
633
632
634
633
632
631
631
634
635
634
634
634
634
635
634
634
638
639
637
638
637
636
634
644
665
694
733
774
817
862
899
924
925
885
828
761
705
676
667
660
649
631
607
584
567
555
548
552
558
564
568
573
580
589
601
612
621
630
634
639
644
646
648
650
651
652
651
654
656
657
656
657
657
658
658
658
659
662
663
664
663
663
662
663
664
665
665
667
669
670
669
668
669
671
670
671
671
673
676
678
677
677
677
677
678
680
682
684
685
687
688
689
689
691
693
696
698
700
704
706
707
708
710
713
716
720
724
728
732
737
739
742
747
751
755
759
765
769
773
776
778
781
784
785
787
791
793
796
796
796
796
796
794
792
789
786
782
778
773
768
762
755
748
741
737
731
726
721
716
712
705
700
694
691
687
684
681
679
675
671
669
665
663
661
659
658
658
659
658
656
655
654
652
652
651
651
651
652
650
650
649
648
648
648
646
647
648
648
648
649
648
648
646
645
646
646
647
647
646
647
646
647
647
646
646
647
647
648
648
648
648
646
646
648
647
647
648
649
649
648
647
648
647
647
647
648
649
648
648
648
647
647
646
646
648
647
646
647
647
644
644
644
644
643
642
643
644
646
644
643
643
643
643
642
642
642
643
644
645
644
643
642
641
641
641
641
642
643
643
642
642
642
642
641
640
641
642
642
642
642
641
640
641
639
639
639
641
642
641
641
640
638
637
637
638
639
641
639
638
638
638
638
637
637
639
638
639
639
638
639
638
638
637
638
639
639
639
639
639
639
638
638
637
638
638
639
639
639
639
639
639
638
637
637
637
637
639
639
638
638
636
636
636
636
637
638
638
637
637
637
636
636
636
636
637
637
638
637
637
637
635
636
637
638
637
638
640
639
638
638
640
642
644
647
651
654
657
657
657
656
655
654
652
652
653
651
651
655
657
659
658
659
662
663
664
662
659
658
657
656
656
654
653
652
650
650
647
645
645
646
643
642
640
639
637
635
638
637
636
635
635
634
634
633
635
636
635
635
634
636
634
632
633
633
633
635
636
636
635
634
633
633
633
634
635
635
636
636
635
635
635
635
636
638
639
640
638
636
632
633
646
670
703
742
783
827
872
907
931
925
880
820
752
699
675
668
660
649
628
603
582
567
555
551
554
560
565
570
574
581
593
605
616
624
630
636
642
645
646
648
650
652
652
653
654
654
654
655
657
657
657
658
659
660
661
660
661
661
660
661
661
663
665
666
666
668
668
667
668
668
668
669
671
672
674
676
676
676
675
675
677
678
679
680
683
684
687
688
688
689
692
695
696
698
700
702
703
706
707
709
711
715
720
723
728
731
733
737
742
745
749
753
756
761
766
769
773
777
780
782
785
788
792
794
795
797
797
797
796
796
795
794
791
787
784
778
772
768
762
756
748
740
733
728
723
719
714
708
703
696
692
687
684
682
678
676
673
669
665
664
662
660
658
657
658
655
653
653
652
651
650
651
650
650
650
650
649
648
647
646
646
646
646
646
647
648
647
646
644
644
646
645
645
646
646
647
647
646
645
645
645
646
647
648
647
649
648
646
648
646
645
645
646
648
649
649
648
647
646
645
648
648
648
649
650
650
649
648
645
645
646
645
646
646
646
647
647
646
645
645
643
642
643
644
646
645
643
643
643
641
641
641
642
642
644
644
644
643
643
642
643
643
642
641
640
641
641
642
642
640
638
639
641
641
640
641
641
642
641
640
639
639
640
640
639
640
639
642
642
640
638
640
640
641
642
640
641
641
639
639
639
640
639
641
642
641
641
640
639
638
639
639
640
639
640
639
639
641
640
639
639
638
638
640
640
639
640
640
638
638
639
641
642
641
641
641
639
639
639
638
640
640
640
641
641
640
640
640
638
638
640
641
641
642
642
643
641
640
641
643
646
647
650
656
660
659
658
659
659
656
654
656
654
652
653
654
656
660
662
660
661
665
665
663
665
663
659
658
659
658
657
656
655
653
651
649
648
648
647
646
646
645
643
640
640
638
638
637
637
638
638
639
637
637
637
637
637
636
636
636
637
635
636
637
636
636
635
635
636
636
636
637
638
637
636
636
636
638
637
638
638
640
641
642
640
637
635
632
637
654
678
712
750
791
834
871
899
918
899
852
798
738
697
685
681
672
658
637
613
594
579
569
566
566
569
572
576
578
583
593
604
615
623
630
637
641
644
646
650
652
653
653
655
656
655
655
656
657
658
658
659
660
661
663
663
660
662
662
663
664
665
666
666
667
668
667
668
669
670
670
672
674
675
674
674
675
676
677
678
679
680
682
683
683
685
688
688
688
688
691
693
695
698
701
702
703
705
708
712
714
717
719
723
727
730
732
736
740
744
750
754
756
761
765
769
771
776
778
780
783
786
788
790
791
793
793
793
793
792
790
788
786
781
777
773
769
762
755
751
744
737
732
727
720
714
709
703
699
695
688
686
683
679
676
673
671
665
663
660
659
659
657
656
654
654
653
653
652
651
648
648
649
649
649
650
649
647
647
647
647
646
648
648
647
646
646
645
645
646
646
647
647
648
648
646
646
646
646
646
646
647
648
647
648
647
648
647
646
646
646
646
648
648
649
648
647
646
646
647
647
648
648
647
646
647
647
646
645
646
646
646
646
646
646
645
643
644
645
646
645
646
646
645
644
644
645
646
643
643
643
643
644
644
644
642
642
643
643
643
642
643
642
643
642
641
643
642
642
642
642
642
642
641
642
641
639
640
640
640
640
640
641
641
640
639
640
638
638
640
639
641
640
639
639
639
639
639
639
639
640
640
640
640
640
640
640
640
639
640
640
640
639
639
640
640
639
638
639
640
640
640
642
641
640
639
638
638
640
639
639
640
642
641
639
636
637
637
639
639
639
639
640
640
639
639
639
638
638
638
638
640
643
645
645
649
653
656
657
659
660
659
659
657
656
654
654
654
654
655
659
663
663
662
663
665
664
663
661
662
661
661
660
659
657
655
653
652
650
649
649
650
651
648
645
642
639
638
637
637
638
639
639
637
638
637
636
635
635
634
635
636
636
636
635
635
637
637
637
636
637
637
637
637
637
638
638
637
637
638
639
639
639
639
639
640
640
641
640
639
638
638
645
664
692
730
772
814
860
900
928
935
898
844
776
714
679
667
659
649
632
609
587
570
557
549
551
558
562
566
573
580
591
603
614
622
629
636
642
646
650
652
654
654
654
653
654
655
655
657
658
658
661
661
660
659
661
661
662
663
664
665
666
665
665
665
666
665
669
670
672
673
673
672
672
674
676
675
676
677
678
679
680
681
681
682
683
685
687
688
690
691
690
693
694
696
698
700
703
705
707
711
714
716
718
720
724
729
733
737
741
745
749
752
756
759
763
767
770
775
779
784
786
787
790
791
792
794
796
797
795
794
794
793
791
786
783
778
772
768
762
756
750
744
738
730
724
717
713
709
704
700
694
690
686
681
678
674
671
670
667
665
663
660
658
658
655
653
654
653
653
652
651
650
648
648
646
648
649
650
648
646
647
647
646
644
643
644
645
646
647
647
645
646
646
646
646
646
645
646
647
646
645
646
646
648
646
646
647
648
649
647
646
646
646
645
646
646
647
648
648
647
645
645
646
645
644
644
645
646
646
646
645
644
643
643
642
643
644
644
644
643
642
641
641
640
640
641
640
639
641
641
638
639
639
638
638
639
640
640
639
639
638
637
637
637
637
637
638
638
639
637
637
638
637
637
636
636
638
637
638
637
636
636
635
635
636
637
638
638
637
636
635
634
634
634
634
635
636
637
636
636
634
634
634
633
633
635
636
636
636
635
634
634
633
633
634
634
634
635
634
633
633
633
632
633
632
633
634
635
634
634
634
633
632
632
633
634
635
635
635
635
635
634
633
633
633
634
634
634
635
634
634
632
633
634
633
635
638
643
646
649
652
652
653
651
651
650
650
648
649
648
646
646
650
654
655
654
655
658
659
658
656
654
654
652
653
653
651
651
648
646
643
642
641
641
640
639
638
638
635
632
632
630
630
630
631
630
631
631
629
628
629
629
628
627
628
628
629
628
628
627
628
627
627
627
629
629
630
631
631
629
628
627
628
629
629
630
631
633
636
633
630
629
626
627
640
666
699
737
778
820
864
899
923
918
873
817
752
700
673
662
654
641
621
597
577
561
550
545
549
554
558
563
567
575
586
598
608
616
623
629
635
637
639
642
643
644
646
646
647
648
647
648
650
650
651
652
653
653
653
654
652
653
656
657
657
658
659
659
659
659
659
660
661
662
662
665
667
667
668
668
668
668
669
672
672
672
675
676
677
678
679
680
681
683
684
687
689
690
692
694
695
697
700
703
707
709
712
715
719
722
724
727
732
736
740
745
750
755
758
760
764
766
768
772
777
780
782
785
786
786
786
787
787
786
785
785
783
779
774
769
765
759
752
746
740
734
728
722
716
708
703
698
694
688
685
680
677
672
666
664
661
659
655
656
655
652
650
649
646
646
645
642
641
641
642
642
641
641
639
637
637
637
638
639
638
638
639
637
637
637
636
636
635
637
639
640
639
638
638
636
637
636
636
636
637
638
639
639
639
639
637
638
636
636
639
640
640
638
637
637
637
637
637
636
640
640
639
638
639
639
637
635
637
636
636
637
638
637
635
634
635
636
637
636
636
636
634
634
634
634
633
634
634
633
633
634
633
632
632
631
631
632
633
633
632
633
632
630
630
629
628
629
628
630
630
630
631
630
629
628
627
627
627
629
629
629
630
630
632
631
630
628
627
627
628
628
627
627
627
627
626
627
627
628
628
627
627
627
627
626
626
624
624
625
626
626
626
626
626
625
625
626
627
627
626
626
627
625
625
625
623
624
625
625
625
626
626
625
627
625
624
624
625
626
627
624
624
625
625
624
624
623
623
624
624
626
626
626
629
630
632
634
638
643
645
644
644
644
643
641
639
638
638
639
640
644
646
647
646
646
647
650
650
648
647
647
646
646
643
641
640
640
639
639
637
634
634
632
630
628
627
625
627
625
626
626
625
623
624
623
622
622
623
622
621
621
622
622
621
621
621
620
620
621
621
621
621
621
623
622
622
624
624
623
625
626
625
624
623
625
628
627
627
627
624
623
626
642
670
704
741
784
827
864
891
906
882
832
774
714
675
665
662
653
640
618
596
577
562
551
550
552
554
556
563
568
575
584
593
604
612
620
628
632
635
636
639
640
640
642
643
644
645
646
646
645
646
646
648
648
650
651
651
651
653
654
652
652
653
655
654
654
657
658
658
659
660
660
660
660
664
664
664
665
666
668
668
670
670
670
672
674
675
676
678
680
680
679
681
686
687
691
693
696
697
697
700
703
707
708
712
716
719
722
727
731
733
736
741
746
750
755
758
761
763
766
769
771
773
775
778
780
779
783
783
780
778
778
775
772
771
767
764
759
753
747
741
734
728
722
717
711
707
702
696
690
686
681
678
674
670
669
667
663
660
658
654
652
651
650
648
647
647
646
645
643
642
642
640
639
640
640
640
640
640
639
637
638
638
638
638
639
640
640
638
638
638
638
637
638
640
639
640
641
641
639
638
639
639
639
640
642
642
642
641
640
639
638
637
639
639
640
641
642
639
639
640
640
638
639
641
641
639
640
640
639
638
636
638
639
637
637
638
637
636
636
636
636
636
636
635
636
637
638
636
636
634
633
634
633
634
635
636
635
634
634
634
633
634
633
632
633
633
634
633
632
633
632
632
632
633
633
634
633
632
631
631
631
632
634
633
633
631
632
632
631
630
629
631
633
634
633
634
632
631
630
630
628
629
631
631
631
631
631
632
632
631
630
630
632
631
632
631
631
632
631
631
630
628
630
631
632
633
631
630
631
630
629
629
630
633
633
633
632
632
632
631
630
629
629
631
632
631
629
629
630
631
630
631
633
637
640
644
647
648
650
650
648
649
648
647
647
646
645
644
646
650
652
651
652
654
656
656
656
654
651
650
651
650
650
649
648
645
643
641
639
640
639
636
635
634
633
632
631
629
627
627
627
630
630
630
630
627
626
627
626
626
626
626
626
625
627
628
627
625
626
627
627
628
627
628
629
628
627
627
627
626
627
628
629
631
632
630
629
628
625
627
641
667
701
743
785
828
871
904
926
914
864
804
737
688
665
656
647
632
611
588
569
555
546
542
546
551
555
560
564
574
586
598
608
617
625
631
634
637
639
642
643
643
644
646
646
646
648
648
649
649
649
652
654
654
654
654
654
655
655
656
656
655
657
660
660
659
661
662
662
662
663
663
663
666
669
667
665
668
670
670
671
674
675
675
675
676
678
678
679
681
683
686
688
691
692
693
696
698
699
701
705
709
712
715
720
723
726
729
732
736
740
745
750
753
757
759
762
766
769
772
776
779
781
783
785
784
786
786
787
787
784
782
781
777
772
768
763
756
750
745
739
733
728
722
716
709
703
698
693
688
683
679
676
672
669
665
662
659
657
653
652
651
651
651
648
646
644
642
641
641
641
641
641
640
641
639
639
638
639
638
637
639
639
638
637
638
639
636
636
637
637
637
637
638
637
637
638
637
637
637
638
639
640
639
639
639
637
635
636
638
639
639
640
640
640
639
638
639
637
636
638
639
639
639
639
637
635
637
638
637
635
636
637
637
635
634
634
633
634
634
634
635
635
634
634
632
632
633
633
632
631
633
634
632
633
632
631
632
631
629
630
631
633
632
630
630
632
631
629
630
631
631
631
631
630
630
630
629
628
628
630
630
630
629
628
629
628
629
629
628
629
629
628
629
629
629
628
627
627
626
626
628
628
627
627
626
626
626
628
627
627
628
628
628
628
627
626
625
625
627
628
628
626
625
625
626
625
624
624
625
627
628
629
627
626
627
626
626
627
628
631
633
636
638
640
642
642
645
644
643
643
644
642
641
641
643
645
648
653
655
653
652
650
650
648
647
647
647
646
646
645
644
643
641
637
634
633
633
631
631
631
630
627
627
626
623
622
622
622
624
624
623
623
624
623
622
621
621
621
622
623
623
623
622
622
621
620
622
624
623
623
624
623
622
621
623
625
623
624
627
628
628
627
625
623
620
623
639
665
699
738
777
820
861
893
911
894
845
787
724
680
665
659
651
638
616
592
574
560
549
545
548
551
556
563
566
573
585
595
605
613
621
627
629
633
636
638
638
640
641
643
644
644
646
645
644
646
645
645
648
648
649
650
650
651
651
651
652
653
654
653
655
657
655
655
656
655
656
658
661
662
664
665
665
664
663
663
666
668
668
671
674
677
677
676
676
676
679
682
684
687
688
689
691
694
696
698
702
706
709
713
717
719
722
725
731
733
735
740
745
750
753
758
760
763
766
769
772
776
779
782
780
780
782
782
782
780
779
778
775
771
768
763
755
748
745
739
732
725
720
713
708
702
698
691
685
682
678
677
673
668
665
660
656
654
651
649
648
649
649
645
644
642
639
637
636
638
637
635
638
638
635
635
636
635
634
633
633
634
635
636
636
636
635
634
632
631
632
633
633
634
633
633
632
632
632
634
634
634
634
635
636
634
631
633
633
634
633
635
636
638
637
635
635
634
633
635
634
635
638
639
636
632
632
633
632
632
633
634
636
635
634
633
633
632
634
635
633
632
632
634
633
632
634
632
632
632
632
632
631
631
631
631
630
631
630
629
630
632
631
633
630
629
627
625
627
630
628
628
629
631
629
628
629
627
624
624
625
628
628
629
628
626
626
625
626
626
627
628
629
627
627
626
625
624
624
626
629
629
627
625
625
625
624
625
626
626
627
627
627
625
623
624
624
624
626
629
629
631
634
636
637
639
641
644
644
642
642
642
641
638
638
637
640
644
650
652
651
652
653
651
647
644
646
646
646
648
648
645
644
640
638
635
630
629
629
629
630
632
629
625
622
623
621
620
621
621
622
622
622
621
618
618
619
619
619
620
621
621
620
620
619
618
617
618
619
619
620
621
622
619
620
621
620
618
618
621
623
624
625
624
623
620
618
624
641
669
706
742
781
823
858
882
894
868
820
760
703
669
661
656
646
632
611
588
569
556
549
545
545
547
552
557
561
568
580
590
600
610
618
621
624
627
631
633
635
637
637
637
639
640
641
641
639
641
644
643
644
645
646
644
644
646
645
646
648
650
650
650
651
650
651
651
653
653
654
656
658
659
659
658
659
660
660
661
662
664
666
667
669
670
670
672
673
675
676
678
681
684
686
685
686
689
692
696
699
701
705
710
713
716
719
723
725
729
734
740
743
747
751
753
756
759
763
767
770
772
773
775
777
776
776
777
775
773
771
769
766
763
758
753
745
739
732
727
723
719
712
706
699
692
688
684
678
673
669
667
665
661
657
655
652
648
644
643
644
643
642
641
639
637
636
635
633
633
632
633
635
634
633
631
631
631
630
631
632
631
630
631
631
630
630
631
630
629
631
631
632
630
630
631
632
630
631
631
632
631
631
632
631
629
630
631
631
631
630
631
631
631
631
631
631
631
631
631
631
632
632
631
632
631
630
629
631
632
631
631
631
631
631
631
630
630
630
631
632
632
632
631
630
630
630
630
630
630
630
631
631
629
628
627
627
627
629
627
627
628
628
628
629
626
627
626
626
627
626
627
626
624
623
624
625
626
625
626
627
628
627
625
625
625
625
626
624
626
626
627
627
627
627
625
624
623
624
623
624
625
626
625
624
624
623
624
623
624
625
625
625
625
624
623
623
623
622
622
624
624
626
626
624
622
622
622
622
623
622
625
624
625
625
626
629
631
635
638
640
642
641
642
641
640
638
638
637
639
642
647
649
652
652
652
653
651
649
648
647
647
648
648
646
645
642
640
636
634
632
632
631
630
628
627
626
624
623
623
622
621
622
622
621
621
619
619
619
619
621
620
620
619
618
617
618
618
619
619
619
620
620
618
618
618
618
618
619
620
621
620
620
621
622
623
622
623
622
622
621
622
634
655
687
727
767
812
857
893
916
909
862
802
733
681
657
648
642
631
611
585
565
549
539
534
537
543
550
555
560
568
580
592
601
609
617
623
627
631
634
635
638
639
638
638
640
641
641
643
645
644
644
646
646
646
647
647
649
650
651
653
652
650
651
652
652
654
656
657
657
659
659
659
658
658
658
661
663
665
664
666
667
668
667
668
670
671
674
677
677
678
680
680
682
682
684
686
691
694
696
698
700
704
706
708
712
716
719
723
729
733
737
742
744
748
752
756
760
763
767
770
773
776
777
778
780
782
785
786
783
782
782
779
775
772
767
763
757
752
747
739
733
727
722
715
708
703
700
695
689
684
680
677
673
666
664
662
658
657
655
652
648
647
647
645
642
642
642
641
640
639
638
636
635
635
636
636
637
637
636
636
633
633
634
634
633
634
636
635
635
635
633
633
633
633
633
633
634
633
633
634
635
634
635
634
634
635
634
633
633
634
634
633
634
634
635
636
635
636
635
635
634
634
632
632
633
634
633
633
634
635
634
633
632
632
633
633
634
635
634
634
633
632
631
632
633
631
632
631
632
631
630
630
630
630
629
631
631
631
630
630
629
628
627
627
628
629
628
630
630
628
627
628
627
626
625
627
629
628
628
627
626
625
624
625
626
626
627
627
626
625
625
624
624
624
625
626
625
625
626
624
623
623
626
624
624
625
627
626
625
625
626
626
623
623
624
623
623
624
624
623
624
623
622
622
623
624
623
622
623
625
624
623
622
623
625
624
625
624
623
622
623
622
620
619
620
621
622
622
621
621
622
623
624
626
629
632
634
637
637
639
640
638
636
637
639
641
642
640
641
643
646
649
650
651
651
649
647
644
643
645
646
645
644
643
642
639
639
636
632
631
630
629
627
625
624
623
620
620
621
620
620
620
620
620
619
620
619
619
618
619
619
617
617
618
616
618
618
617
619
619
619
619
619
620
619
618
616
618
619
620
620
619
619
620
623
626
626
622
621
619
621
634
657
689
727
768
811
853
884
906
895
850
794
730
683
666
662
651
639
620
596
577
561
550
542
541
546
552
557
560
567
578
588
599
608
615
622
628
630
630
633
637
638
638
638
639
641
642
642
641
642
642
643
644
646
648
649
649
648
648
649
649
651
654
655
654
654
653
652
653
654
655
657
658
661
662
661
662
662
662
663
663
664
665
667
670
670
672
674
676
675
678
679
681
683
685
687
689
692
693
695
697
701
704
707
711
714
717
721
724
728
733
736
742
747
752
754
755
759
763
765
768
770
773
777
779
781
780
780
779
780
781
779
777
775
770
764
759
753
746
741
736
728
721
718
711
704
699
695
690
683
678
674
670
669
667
663
658
655
651
649
646
646
647
647
645
641
639
637
636
636
636
635
636
638
638
638
636
633
633
634
634
633
634
636
635
633
630
631
632
632
633
634
634
634
634
633
632
631
631
632
632
633
632
635
635
634
634
635
633
633
634
633
635
636
635
633
634
634
635
635
635
635
637
638
637
636
635
634
633
634
634
634
634
635
634
634
633
633
633
634
633
634
633
634
633
634
630
630
630
631
631
632
633
632
632
631
629
629
630
628
629
630
631
631
631
631
628
627
627
627
628
629
630
630
629
629
628
628
628
628
628
629
628
627
628
627
626
626
625
625
626
626
628
628
627
627
626
625
625
626
625
627
627
626
624
624
626
626
626
627
627
626
626
627
626
626
625
625
626
624
625
627
627
626
627
625
625
625
624
622
624
625
625
625
626
625
624
624
623
624
625
625
625
625
625
625
624
625
626
625
625
629
633
633
635
637
638
638
641
641
641
643
643
640
641
642
642
644
648
652
654
655
653
652
651
648
646
647
648
649
646
645
645
642
641
639
635
634
634
633
633
630
629
628
626
625
623
621
622
622
622
622
624
624
622
622
621
621
621
622
622
621
622
621
621
620
622
622
621
622
622
622
623
622
623
621
621
621
621
622
623
624
625
627
627
626
625
625
623
625
640
665
699
738
778
818
858
888
908
895
848
791
729
685
668
662
653
640
619
596
575
561
551
545
547
551
554
559
563
570
581
593
603
611
618
624
630
633
636
637
641
642
642
644
646
644
644
644
646
647
648
649
651
652
652
651
651
653
653
654
655
655
656
658
657
655
657
659
658
658
661
662
663
664
664
664
664
665
667
668
670
671
672
674
673
674
675
677
678
680
683
684
686
687
688
690
693
694
696
700
703
707
709
712
715
719
722
725
730
734
739
744
747
749
752
756
759
764
768
771
774
777
780
781
782
783
785
786
786
786
784
782
781
778
773
768
763
758
754
749
742
737
730
724
718
712
707
701
696
693
690
686
680
676
673
670
666
666
663
659
657
658
656
653
650
651
648
648
646
646
647
645
645
644
643
642
642
642
643
643
643
643
643
643
642
642
642
642
642
642
642
644
643
642
643
642
642
642
641
643
643
643
643
641
641
641
641
641
642
644
644
643
643
642
642
641
642
643
643
644
643
642
642
640
643
643
641
641
640
641
642
643
642
641
640
640
641
639
638
640
639
640
640
639
638
638
639
638
639
639
639
638
638
638
637
637
637
637
637
637
637
637
636
636
635
634
635
635
634
636
637
636
636
636
634
634
634
634
635
634
636
636
635
633
632
632
633
634
633
633
633
634
632
632
632
631
632
633
634
634
634
634
634
632
631
632
632
632
633
633
634
634
633
632
632
632
632
633
634
634
635
633
631
632
630
632
633
632
633
634
633
634
632
631
631
632
633
632
633
633
633
634
632
632
631
630
630
630
631
632
632
632
630
630
630
631
631
632
631
631
632
632
632
632
633
635
638
640
644
648
650
652
651
650
649
649
650
649
649
650
653
655
657
661
662
662
661
660
658
656
655
654
655
655
654
651
650
648
646
645
642
640
640
640
638
635
633
633
632
631
631
630
629
629
630
629
629
628
629
629
627
627
628
628
626
627
627
627
628
628
629
629
630
629
628
627
629
631
629
629
629
629
630
629
627
628
631
633
634
633
633
632
630
638
657
685
725
767
810
857
896
924
930
893
838
772
711
676
662
654
644
624
599
576
558
548
542
544
551
558
561
565
571
582
594
605
614
622
631
633
637
639
641
643
643
645
647
646
648
649
648
649
650
651
650
650
650
653
656
656
657
655
655
656
657
657
657
658
661
662
661
660
659
660
661
662
665
667
668
667
669
670
669
669
671
672
673
675
677
678
678
678
679
682
683
684
687
690
692
694
695
698
701
702
704
709
711
713
718
722
726
728
733
736
740
745
749
754
758
761
765
768
771
773
777
782
785
788
789
790
791
792
791
791
790
790
789
784
781
777
773
766
759
752
747
741
735
730
724
718
711
706
702
696
692
687
683
679
677
672
668
665
662
660
659
656
655
653
653
650
649
648
646
645
645
645
645
646
647
646
644
642
641
641
642
642
642
642
643
641
641
642
640
640
641
641
642
643
644
644
644
643
642
641
641
642
643
644
644
645
645
643
641
641
642
642
643
644
644
644
644
644
642
642
643
643
642
643
644
642
641
642
641
642
643
643
643
643
643
643
641
640
640
640
639
640
641
641
643
642
641
640
639
639
638
639
640
641
640
638
639
639
638
637
637
637
638
638
638
638
636
635
635
636
636
636
637
636
635
635
635
634
634
633
635
635
636
635
635
635
633
634
635
637
636
635
635
634
634
633
634
634
634
633
633
635
635
635
636
635
634
632
632
632
633
634
634
634
634
632
631
632
633
633
633
633
635
636
635
633
632
631
631
633
633
633
634
634
632
631
632
633
633
632
632
632
633
633
634
633
633
632
631
631
631
632
634
634
635
635
636
638
639
641
644
648
648
651
652
651
650
649
649
649
649
649
652
656
660
663
664
664
662
662
661
658
658
658
657
656
654
655
653
651
650
649
646
642
642
640
640
639
636
634
633
634
636
635
633
632
632
631
630
631
629
631
632
631
630
630
631
631
631
630
630
632
632
632
630
629
630
630
630
631
632
632
633
633
633
632
632
633
634
636
637
635
634
633
634
643
665
695
733
772
815
859
891
914
912
870
817
754
702
678
670
665
655
638
614
592
575
562
555
555
558
563
569
571
576
585
595
605
615
623
629
636
642
643
644
647
649
650
649
649
651
652
654
653
652
654
655
655
656
657
658
657
659
660
660
659
659
661
663
662
663
665
666
666
667
666
666
668
670
671
672
673
674
675
676
677
676
676
677
677
679
682
683
684
686
686
687
689
691
694
696
698
700
703
705
707
708
710
714
718
722
726
730
733
734
738
743
748
751
756
761
766
768
772
775
776
779
781
784
786
789
790
791
793
794
792
790
788
786
783
782
777
772
766
760
752
747
742
735
729
723
718
712
708
703
697
692
687
683
680
678
676
673
669
665
662
661
659
658
656
655
654
652
651
651
650
648
649
649
649
649
648
647
647
647
646
645
646
646
646
646
647
646
645
644
644
645
645
644
644
646
646
646
645
646
646
646
646
647
647
646
647
648
646
647
647
646
647
647
647
648
648
648
647
647
647
646
646
646
648
648
648
647
646
646
646
645
646
646
648
646
646
645
644
643
643
644
645
645
646
646
643
642
643
643
643
644
642
641
642
643
644
643
642
642
642
641
641
641
641
641
641
641
641
639
639
638
640
641
640
641
640
640
640
639
638
638
638
639
640
640
640
639
639
639
640
640
640
639
640
640
640
638
639
638
638
636
636
638
641
639
639
637
636
637
637
637
637
637
639
639
638
637
637
636
636
636
636
635
637
637
637
637
637
637
635
635
636
637
637
639
639
636
636
635
635
634
635
635
637
636
637
636
636
636
635
635
636
637
636
637
637
637
636
636
638
639
642
644
648
651
654
656
656
655
655
653
654
654
652
653
654
657
660
662
664
664
665
665
664
662
659
658
658
657
658
657
655
654
653
651
648
645
644
643
643
643
641
640
639
637
636
636
635
634
634
634
634
634
634
635
635
634
634
631
631
632
634
635
636
635
635
634
634
633
634
634
634
636
636
636
635
636
636
634
634
636
638
639
640
640
639
636
636
648
672
704
744
785
829
873
909
932
924
877
818
751
698
674
666
658
645
627
602
581
565
554
551
557
562
567
570
574
581
592
606
616
626
634
639
644
647
649
652
653
656
655
654
656
658
659
658
658
658
658
660
661
663
665
665
666
666
666
666
665
666
667
669
671
670
670
671
671
671
673
673
676
678
677
678
677
678
679
680
680
681
683
685
687
688
688
689
690
690
693
693
695
698
700
702
704
704
705
708
710
714
718
721
723
727
729
732
736
739
743
747
752
758
762
766
769
772
775
778
781
783
787
791
794
796
796
798
798
798
798
797
794
794
793
790
784
780
774
767
762
758
751
745
740
734
727
722
715
710
705
701
698
694
691
687
683
679
676
674
671
668
667
666
664
663
662
660
659
658
657
657
657
657
657
656
655
653
653
654
652
653
653
654
655
655
654
653
653
652
652
653
654
655
655
655
656
655
653
651
652
654
654
654
656
656
655
655
654
654
654
654
654
655
655
655
654
653
653
652
651
653
654
654
654
653
653
653
651
651
651
651
652
651
652
653
652
652
652
651
650
651
651
651
651
651
650
649
649
648
648
650
650
651
650
649
649
648
648
647
648
648
647
648
649
648
647
646
645
646
647
647
647
647
647
645
646
646
645
645
645
646
646
647
647
646
646
645
646
647
647
646
646
647
647
646
645
646
644
644
645
646
647
647
647
645
644
644
643
644
644
645
646
647
646
645
644
644
644
644
645
644
645
647
646
646
645
644
645
645
645
645
645
645
645
645
644
644
643
644
644
644
645
645
644
644
644
643
642
643
645
645
647
647
646
646
643
643
643
642
643
644
644
646
646
645
645
647
649
651
654
659
661
664
664
665
663
661
660
660
660
660
663
667
670
672
672
671
671
670
670
670
668
667
669
668
664
663
662
661
660
656
655
653
653
651
649
647
647
645
644
643
643
644
643
643
641
640
641
641
642
642
642
642
642
640
640
642
642
640
639
640
640
642
641
641
641
641
642
641
642
643
643
643
642
642
642
644
644
645
645
644
644
643
647
662
690
725
764
806
851
893
923
939
914
861
800
738
696
679
673
663
650
628
603
585
572
561
559
562
567
572
578
581
589
601
612
622
630
636
644
650
653
654
656
657
659
659
659
660
662
662
662
663
664
665
664
665
668
669
670
671
671
671
670
670
672
673
673
675
675
676
677
676
676
677
678
679
681
682
683
684
685
687
686
686
686
687
689
691
693
693
695
696
697
698
700
701
702
703
707
710
713
715
718
719
722
722
724
728
733
737
741
744
748
751
754
760
763
766
771
774
778
781
782
785
788
790
792
795
799
801
803
803
802
800
799
798
797
794
791
788
783
778
772
766
761
754
748
744
738
732
728
721
715
710
707
700
696
694
692
690
686
681
677
675
673
670
668
667
668
667
666
665
663
662
661
660
660
661
661
660
659
659
659
656
656
658
659
658
659
660
660
660
658
659
658
657
656
657
658
658
659
659
659
660
659
658
658
660
661
661
660
660
660
660
660
660
658
658
661
661
659
659
660
659
659
660
659
658
659
660
660
659
658
657
656
658
660
658
659
659
658
658
658
658
658
656
656
658
658
659
659
657
657
658
656
656
657
658
657
658
656
656
657
658
654
652
653
654
658
659
657
656
655
655
656
656
656
656
656
657
655
654
655
655
654
654
655
656
657
657
655
655
655
656
655
653
653
654
654
655
654
654
655
655
652
652
652
655
654
654
655
653
653
653
653
652
652
652
653
654
655
652
651
652
652
653
654
653
653
653
652
651
652
652
652
652
652
652
652
653
652
651
651
651
653
654
654
654
653
652
652
650
650
650
650
650
652
653
653
654
656
657
659
663
666
668
671
673
673
670
668
668
667
665
665
667
670
675
679
680
679
678
677
677
676
675
675
675
674
673
671
670
668
665
664
662
661
661
661
659
657
655
653
651
650
650
651
650
650
650
649
647
647
648
649
649
651
652
651
650
649
649
648
647
647
648
649
650
649
649
650
650
649
650
649
649
649
648
650
651
652
653
653
651
650
647
648
660
682
713
748
788
830
870
901
925
927
888
836
775
720
695
688
682
671
657
634
613
597
584
575
574
575
578
581
587
592
600
611
620
628
636
644
650
655
659
662
663
664
664
665
665
665
666
667
668
670
672
672
670
671
672
672
673
674
675
677
677
678
678
677
676
677
678
680
681
682
682
682
683
685
685
685
687
686
687
690
691
692
693
693
694
695
696
698
699
701
703
704
703
706
709
711
711
714
717
719
722
725
726
728
731
735
739
740
743
750
753
756
760
763
767
770
772
775
781
785
787
789
792
795
795
797
800
801
805
805
805
805
803
801
797
794
791
786
784
779
774
768
761
753
747
741
738
732
727
723
718
712
706
702
698
695
692
689
687
685
683
680
677
675
673
672
673
669
668
668
668
667
665
664
665
662
663
663
663
663
665
664
661
661
660
661
662
662
661
662
663
661
662
662
661
662
663
663
664
664
663
662
662
663
663
663
663
663
662
664
664
662
661
661
661
661
661
661
663
663
662
661
659
659
659
659
660
660
659
660
660
659
659
659
659
659
659
659
659
658
657
658
657
657
657
656
658
658
657
656
657
656
655
655
655
655
655
655
656
656
656
655
654
654
655
655
655
655
656
656
655
654
654
653
652
653
654
655
655
655
654
653
653
653
653
652
653
654
655
655
654
653
654
653
653
653
654
655
655
654
654
654
654
654
653
654
654
654
654
653
654
655
654
652
653
653
653
655
654
654
654
654
654
654
652
652
653
654
654
656
655
654
653
654
653
653
654
655
656
657
657
655
654
652
654
655
654
655
657
657
658
660
661
664
667
670
673
675
675
676
674
672
673
671
670
671
674
679
681
682
683
682
683
683
682
678
676
678
679
676
675
674
671
668
665
663
662
663
663
661
661
658
657
655
653
653
653
654
655
654
653
653
652
651
651
651
650
651
652
653
651
649
650
651
651
652
652
652
654
652
651
651
651
651
652
652
653
654
654
654
654
654
654
653
652
652
650
657
677
705
741
781
823
867
909
938
952
924
869
804
739
699
685
679
670
656
633
611
593
578
569
569
574
578
583
588
596
607
617
627
636
643
651
657
660
664
667
669
669
671
671
671
671
672
673
674
677
677
677
676
677
677
677
678
679
682
682
682
682
683
684
684
685
686
687
688
688
689
690
690
690
690
690
693
692
695
696
696
697
696
696
698
700
702
703
705
706
708
708
709
710
714
716
716
717
720
724
725
728
732
734
736
739
744
746
750
755
758
760
764
769
773
776
780
784
788
792
795
798
800
802
805
805
807
809
809
810
813
812
810
808
805
801
799
794
789
785
780
774
768
761
753
749
744
739
734
729
725
719
714
709
705
702
699
696
694
691
689
686
684
680
678
677
675
675
674
673
672
670
669
669
669
668
668
669
668
668
669
669
667
666
667
667
667
667
668
667
668
668
667
667
667
667
666
668
669
670
667
668
668
667
666
666
667
668
668
669
668
666
666
666
666
667
667
668
668
666
667
667
665
665
665
665
665
666
665
665
666
665
665
665
664
663
663
662
663
663
664
663
663
662
661
661
660
661
663
663
662
661
659
658
659
660
660
660
661
661
661
659
659
658
657
656
657
658
658
658
658
657
656
656
658
658
657
656
657
658
657
655
655
655
654
655
656
657
657
656
656
654
654
655
656
656
656
657
657
657
656
655
655
655
653
655
655
654
656
657
656
654
653
653
653
654
656
656
655
654
654
655
652
652
653
653
653
655
656
655
653
653
653
652
652
652
653
654
655
654
655
655
655
655
657
660
662
664
665
669
671
671
671
669
670
669
669
670
669
671
674
677
679
681
681
683
682
681
680
677
676
677
677
675
674
673
672
671
666
665
662
661
660
658
656
655
654
653
652
652
651
651
649
649
650
651
650
650
651
650
648
647
648
645
645
647
648
650
648
648
647
647
647
647
646
647
649
649
651
651
650
648
648
649
649
650
653
651
650
649
649
656
677
706
743
784
824
867
904
929
935
899
843
781
723
692
684
678
667
652
629
606
587
572
565
566
571
576
579
584
590
600
611
621
629
637
644
650
654
657
660
660
663
663
664
667
668
667
666
665
666
668
669
670
669
671
672
673
675
676
675
675
675
676
676
676
678
677
678
679
678
680
681
682
681
681
684
685
685
687
687
688
688
689
690
692
695
697
697
698
699
700
701
703
705
706
708
712
713
714
715
718
721
724
727
732
737
741
743
744
746
748
751
756
761
765
768
773
778
780
782
787
788
790
793
798
800
800
801
803
804
803
801
800
799
796
793
790
786
782
776
769
763
756
750
746
742
735
729
725
719
713
707
703
700
696
692
689
685
682
679
676
674
672
671
671
669
668
667
665
665
663
662
662
663
663
664
661
659
658
658
658
658
660
661
660
661
660
658
659
658
657
658
657
657
657
658
660
660
660
660
659
658
658
660
661
661
661
661
660
659
659
660
659
660
659
661
661
659
660
659
659
658
659
660
662
661
662
662
660
658
657
656
656
658
659
661
660
659
656
655
655
655
656
656
657
657
657
658
657
655
654
653
653
655
655
655
656
655
655
654
654
652
653
654
654
654
655
653
653
651
650
650
651
652
652
652
652
652
653
653
651
652
651
649
650
651
653
652
651
650
648
648
648
650
650
649
650
650
650
649
648
649
648
650
650
648
649
649
648
649
648
647
648
648
649
649
649
647
647
648
647
647
648
649
651
652
653
652
653
655
659
663
663
665
666
667
666
664
663
662
662
664
669
673
675
677
677
677
677
675
673
671
669
672
673
670
667
667
665
664
661
658
655
655
655
654
653
650
648
646
644
645
647
648
646
646
645
643
643
643
644
643
644
643
643
644
644
643
642
643
643
643
645
645
644
643
643
644
644
643
643
645
645
643
643
645
645
646
647
645
644
644
643
647
663
689
722
759
798
838
877
901
916
898
852
796
738
699
689
685
678
666
645
624
606
590
577
569
569
571
575
581
586
593
603
614
621
630
636
643
648
653
655
658
660
660
660
661
661
661
662
665
666
666
666
665
667
666
668
668
669
670
670
671
672
673
673
673
673
675
676
676
678
678
679
679
679
681
682
682
683
685
686
687
688
689
689
690
692
691
693
695
696
697
701
703
702
703
705
706
709
712
714
716
720
723
722
724
729
732
735
740
744
749
751
753
758
761
764
767
771
775
779
783
785
787
789
791
793
794
795
797
799
798
798
796
794
792
786
781
779
775
771
765
759
754
745
739
735
729
724
719
716
711
706
702
697
692
688
685
682
680
678
677
675
671
669
667
665
663
663
663
663
662
661
658
658
658
658
658
658
658
657
656
657
658
656
657
658
655
657
659
658
657
657
657
657
655
655
656
656
657
657
658
658
657
657
656
657
657
657
657
657
657
657
656
656
656
657
656
656
657
658
657
658
656
655
655
654
655
655
656
658
657
657
656
655
654
654
654
655
655
655
654
654
653
653
653
652
651
651
653
653
653
653
653
652
652
652
652
651
653
653
652
653
649
651
650
649
650
650
651
651
650
650
650
649
648
648
648
650
650
651
650
650
650
649
648
648
650
650
651
651
650
648
647
648
649
649
648
648
650
651
651
648
648
648
648
649
649
649
650
650
650
649
649
649
649
649
649
650
651
650
649
649
649
650
649
648
649
651
652
653
654
656
658
662
664
666
666
667
668
668
669
667
666
666
665
668
672
675
679
682
681
681
679
676
675
672
671
673
673
673
672
669
667
663
661
659
658
658
657
657
656
653
650
648
648
647
647
648
648
648
648
647
646
645
645
646
647
646
646
646
646
647
648
646
645
647
647
649
649
649
649
649
649
648
647
647
650
650
651
654
654
655
653
651
650
648
650
663
686
718
756
796
838
882
916
939
937
893
835
768
715
691
682
675
663
643
620
601
584
571
566
570
574
578
583
588
596
608
619
629
638
645
650
655
658
660
662
665
666
668
669
669
668
668
669
670
670
671
674
675
674
673
673
674
675
677
679
680
681
680
681
682
680
681
683
684
686
686
687
688
689
688
688
689
689
692
693
693
695
696
696
696
697
698
699
701
703
706
708
709
710
712
714
715
717
720
724
727
730
732
733
735
739
743
747
751
755
759
762
766
770
772
775
779
783
786
789
793
796
798
800
801
801
803
805
806
807
807
805
805
802
797
794
790
785
780
776
770
764
757
752
746
740
734
730
725
720
715
711
706
702
698
696
692
688
685
684
682
680
678
675
673
672
671
670
670
669
669
668
667
665
665
665
665
665
666
665
665
665
665
663
662
664
662
664
663
664
665
665
664
664
663
663
664
664
664
665
666
665
664
665
664
664
665
664
665
665
665
666
666
664
663
664
664
664
664
665
665
664
664
661
662
662
662
662
664
665
665
663
663
661
660
659
658
659
660
661
661
660
659
660
659
659
659
658
660
660
659
659
658
658
658
657
657
657
658
658
658
659
657
656
656
656
657
657
656
657
658
658
656
655
654
654
654
656
657
656
655
656
655
654
654
653
652
654
655
655
655
655
654
653
652
653
654
654
654
655
655
654
654
653
653
652
653
654
655
656
655
655
654
654
652
653
653
654
652
653
654
654
653
652
653
653
653
653
653
654
654
653
653
653
653
653
653
654
654
656
657
657
658
659
662
664
667
670
671
671
671
671
671
671
668
669
669
671
676
680
683
684
683
685
682
679
676
675
677
678
676
676
673
671
670
666
662
660
660
659
658
657
657
654
652
650
649
649
648
649
650
650
650
648
647
647
647
647
649
649
648
648
648
647
646
646
647
646
647
648
648
647
647
650
648
648
649
648
648
649
649
649
650
651
652
651
648
648
650
661
684
716
756
796
839
885
921
944
935
887
828
760
710
688
679
672
661
642
616
596
580
568
564
567
572
576
581
585
595
606
617
625
634
641
648
654
656
659
662
663
662
662
663
664
666
666
668
669
671
670
670
670
670
672
672
674
675
675
677
677
676
677
677
678
679
679
680
681
683
684
683
684
685
683
684
684
686
689
690
691
692
694
693
693
695
697
698
700
701
704
705
706
708
709
710
712
715
719
722
723
726
730
730
732
737
740
743
748
753
755
758
762
765
770
775
778
782
785
788
790
793
796
798
799
801
804
806
807
808
808
805
803
801
798
795
790
786
782
776
771
764
757
750
743
738
733
730
725
718
713
708
704
699
695
692
690
687
684
681
679
677
676
674
671
670
670
667
665
666
666
665
663
663
661
660
660
661
662
661
660
661
661
660
661
662
661
661
662
663
660
659
658
659
661
661
660
661
663
664
662
660
662
662
661
662
663
664
664
664
661
660
660
660
661
662
663
663
664
663
662
662
661
661
660
660
661
662
663
663
662
663
661
660
660
659
658
660
661
662
663
661
658
658
657
657
657
658
658
658
658
658
656
656
656
655
657
657
657
657
656
655
655
655
654
655
655
655
656
657
657
654
653
652
653
654
655
657
656
655
655
653
652
651
652
653
653
654
654
655
655
653
651
652
651
653
652
652
653
653
652
651
652
651
651
652
653
654
653
653
654
653
651
651
651
652
653
652
652
653
653
651
651
650
650
650
651
652
652
652
652
650
649
651
651
651
653
652
651
651
651
651
650
653
655
655
656
661
665
665
667
668
667
665
666
668
667
667
668
670
673
675
677
676
678
680
679
675
672
672
672
673
672
671
670
669
667
664
662
658
659
659
656
656
656
653
652
651
651
651
648
647
648
648
648
647
649
649
648
647
648
647
647
647
647
646
646
647
646
645
646
646
646
645
645
646
647
647
648
647
648
647
647
648
649
650
652
651
650
649
646
648
660
685
719
756
795
841
878
906
923
910
866
810
748
706
693
688
680
668
650
625
605
589
576
571
573
577
580
584
589
593
604
615
625
634
641
649
652
655
656
659
661
662
663
664
666
668
668
667
669
670
668
668
670
672
672
673
673
672
674
675
676
676
676
677
678
679
680
682
682
681
682
683
683
684
685
686
687
688
688
690
692
691
692
694
697
697
698
698
697
699
701
703
706
708
710
712
714
716
717
720
723
724
726
730
734
737
741
744
748
749
754
759
764
766
769
774
776
779
782
786
788
791
795
798
801
801
801
804
805
805
803
801
801
798
795
793
788
784
779
775
769
763
756
750
745
739
733
728
723
717
712
708
704
700
696
694
690
687
683
680
677
675
674
674
673
672
669
669
668
665
664
664
664
665
665
664
661
663
662
662
662
663
663
662
662
662
661
661
659
661
661
660
660
661
662
663
662
662
663
663
662
661
662
663
663
662
663
662
661
661
659
660
663
662
661
660
660
661
661
661
660
659
661
662
661
661
661
661
661
659
660
662
662
662
662
661
659
657
657
657
658
658
657
658
659
659
658
657
659
656
656
657
654
658
658
655
655
655
654
654
654
654
654
655
654
654
653
654
653
651
652
653
653
655
654
653
653
653
652
652
653
652
652
655
655
654
653
653
652
652
652
652
652
652
652
653
652
651
651
651
651
652
654
653
652
650
651
650
652
651
651
653
652
652
650
651
650
650
650
649
650
650
651
651
651
651
651
649
650
650
650
650
651
652
650
648
648
649
650
648
649
651
651
651
652
651
650
651
655
657
657
660
663
667
668
666
667
668
666
666
667
667
667
669
671
673
675
677
678
678
679
678
676
674
674
673
673
673
671
669
667
665
665
662
658
658
656
654
654
653
653
652
650
650
649
649
648
647
646
647
648
648
648
649
648
646
646
646
644
643
645
646
647
645
645
645
645
645
646
647
648
648
648
649
647
645
646
647
648
650
652
653
653
651
650
648
652
669
695
732
771
813
856
896
923
936
908
855
793
731
694
683
678
669
654
633
610
590
575
568
567
569
574
578
582
589
596
608
620
628
638
645
649
653
657
659
659
660
663
665
665
666
667
667
668
668
667
669
670
671
672
673
673
674
675
674
675
675
676
677
679
680
680
680
681
682
681
681
681
683
685
685
686
686
688
688
690
691
691
691
692
694
696
697
697
699
700
701
702
704
706
708
711
713
714
715
717
719
722
727
731
735
738
741
742
746
750
754
756
760
765
770
775
777
781
783
786
787
790
794
798
800
803
803
803
803
803
803
802
801
799
796
793
788
783
776
770
764
760
756
749
744
738
732
726
721
716
711
707
704
700
698
694
690
687
684
680
678
677
674
674
672
673
671
667
668
666
664
664
664
665
665
663
663
662
661
662
661
660
661
662
663
661
661
661
660
661
660
661
661
661
662
662
662
661
661
659
660
663
662
662
663
663
663
661
660
661
662
662
662
662
663
663
662
663
662
661
661
662
662
662
663
664
662
660
661
661
660
660
660
662
661
660
660
660
660
660
658
658
659
659
659
659
657
657
656
654
656
657
658
658
656
655
656
655
655
655
655
656
657
655
655
655
655
655
656
655
654
653
655
655
654
654
654
655
653
653
654
653
653
652
652
652
651
651
651
650
652
653
654
654
653
652
652
652
651
650
650
651
651
651
651
651
651
651
650
649
650
652
652
653
652
652
651
651
649
650
650
650
652
651
651
651
651
650
650
650
650
651
653
653
652
652
651
650
650
651
651
651
652
652
652
651
651
649
649
650
649
651
652
652
650
650
650
651
650
650
652
655
659
662
664
667
668
669
668
668
668
668
667
667
668
670
672
675
677
679
680
682
680
678
675
674
674
673
674
672
671
670
670
668
665
661
659
657
656
656
657
655
653
651
650
649
649
649
647
648
648
649
648
648
647
646
646
645
646
647
647
648
648
646
645
646
646
646
646
646
647
648
647
646
647
646
646
647
648
648
650
652
652
653
652
649
648
647
654
673
702
739
780
822
868
907
937
947
913
855
791
729
692
679
671
661
645
620
598
581
568
561
563
568
573
577
580
588
600
612
623
632
641
646
652
655
657
659
659
661
665
667
666
667
666
665
666
666
667
669
671
672
672
674
673
672
674
675
674
676
678
678
679
678
679
679
679
680
681
682
683
685
685
685
685
686
686
688
690
690
692
694
695
694
695
697
697
698
700
702
704
705
707
709
711
712
713
716
719
721
725
728
730
735
737
739
743
746
749
754
759
763
768
772
775
778
781
783
786
791
794
797
800
802
803
803
805
806
807
807
806
806
803
799
796
791
787
782
775
771
766
760
754
747
740
733
728
723
718
713
710
705
702
697
692
689
687
683
681
679
678
677
674
671
670
669
667
665
664
665
665
664
664
662
661
661
661
662
662
662
662
661
661
661
660
659
660
659
659
661
662
662
662
662
661
660
659
659
660
662
660
661
662
661
661
661
661
661
662
663
663
661
660
660
661
660
661
661
661
662
661
662
661
660
660
659
659
659
660
660
660
660
659
657
657
657
656
657
658
657
658
658
657
656
655
656
656
655
654
656
657
656
656
655
653
653
653
652
653
654
655
655
654
654
653
652
652
652
651
652
654
654
653
651
650
651
650
650
651
652
652
652
652
652
651
650
650
651
651
652
651
651
650
649
648
648
648
649
650
650
650
650
649
650
648
648
648
650
651
650
650
651
650
649
648
648
648
647
647
649
649
649
649
649
648
647
648
649
648
649
650
648
647
646
647
648
646
646
648
647
649
649
648
647
645
646
647
648
647
647
647
647
646
647
648
649
649
651
655
656
659
662
662
664
664
665
665
664
665
666
666
665
667
669
670
673
675
676
676
676
676
672
670
668
670
670
668
669
667
664
662
658
656
654
653
652
651
650
651
649
647
645
644
643
643
643
644
643
643
644
643
643
642
642
642
643
642
642
643
643
643
643
642
642
641
641
641
642
642
643
645
645
643
641
642
641
642
644
647
648
648
645
643
642
642
651
672
703
741
781
823
867
901
924
927
889
832
770
715
689
680
672
661
645
621
600
585
573
565
565
569
572
577
579
585
595
606
617
626
634
641
647
649
652
655
656
658
660
661
663
663
662
661
662
662
664
665
668
668
668
668
668
668
669
669
669
671
671
673
674
675
677
675
675
675
675
677
679
681
683
682
681
683
683
685
686
686
687
688
690
692
692
692
693
693
696
698
699
703
705
705
707
708
710
712
715
717
719
724
727
730
732
735
738
741
744
750
754
757
760
764
767
771
773
777
781
784
786
791
793
794
796
797
797
798
798
798
798
797
796
793
788
783
778
773
768
763
758
752
746
739
734
727
720
716
712
708
703
699
696
691
686
682
679
676
674
672
670
670
669
667
666
663
661
660
659
659
659
657
657
658
656
655
655
655
655
656
656
654
654
654
654
655
655
654
654
655
655
656
656
654
654
654
654
655
655
655
656
656
656
655
654
655
655
656
657
657
656
655
657
656
655
655
654
654
656
656
656
656
655
654
656
656
655
653
653
654
655
655
655
652
652
652
651
650
651
653
654
654
653
652
651
651
650
649
651
650
651
649
649
651
651
651
649
649
649
649
649
651
650
649
649
647
648
649
649
648
647
649
649
648
648
647
647
647
647
647
648
648
648
647
647
647
646
645
645
647
648
648
647
645
644
645
644
644
645
646
647
646
647
647
647
646
645
645
645
646
648
648
648
645
643
643
645
647
646
646
646
645
644
645
645
645
645
646
645
644
645
646
644
644
644
644
644
645
647
646
646
646
643
644
645
646
647
649
650
653
656
658
659
661
660
659
659
660
661
661
662
661
662
666
668
671
672
673
675
673
670
668
667
666
665
666
666
665
663
662
661
657
654
652
652
651
649
648
646
646
645
644
643
642
641
639
640
641
641
641
641
640
639
639
638
638
638
639
640
640
640
639
638
639
640
639
639
638
639
640
641
640
639
639
639
639
640
642
643
644
644
644
641
638
638
650
674
705
741
780
821
862
892
913
910
870
817
756
707
686
680
672
663
646
623
602
586
576
568
567
569
570
576
580
583
593
603
613
624
633
640
643
647
650
652
654
656
656
658
658
659
660
662
662
662
663
663
665
668
667
666
666
666
666
666
668
669
669
670
669
670
672
673
673
673
673
675
676
677
678
678
677
678
679
681
683
684
685
687
688
689
689
689
690
693
694
696
699
701
704
705
705
707
708
710
713
715
717
722
726
727
729
733
736
738
742
747
751
755
758
762
764
767
769
774
778
781
783
786
788
789
791
792
792
793
793
792
793
792
790
786
782
778
773
768
763
758
754
747
741
735
728
723
719
714
708
704
700
698
694
690
686
682
678
676
674
672
671
670
669
667
664
662
661
660
659
658
657
658
658
657
657
656
654
654
656
656
655
655
656
657
656
653
653
653
653
653
655
655
656
655
653
653
654
653
654
654
655
655
656
655
656
654
654
653
654
654
653
654
654
655
653
653
653
653
653
654
656
655
655
653
653
652
653
654
653
653
654
653
652
652
651
651
651
651
652
652
652
653
653
650
649
649
650
649
649
650
649
650
650
649
648
647
647
648
648
648
649
648
647
648
649
647
647
648
647
647
647
648
647
647
647
646
646
646
646
646
648
648
647
646
646
644
645
645
647
647
648
648
648
647
646
645
645
645
646
646
647
648
647
646
645
647
647
647
647
647
646
646
648
646
645
645
644
646
646
645
645
645
646
645
644
644
643
645
647
646
646
647
647
646
645
645
644
644
647
647
646
646
645
645
644
643
646
644
645
647
649
649
651
652
653
654
657
662
664
666
666
664
664
663
661
661
661
663
667
670
674
674
673
674
674
672
669
669
670
672
671
669
669
666
664
661
658
654
654
655
655
653
650
648
647
644
643
644
645
646
645
644
643
643
642
643
643
642
642
642
643
642
641
642
641
641
641
642
643
644
643
644
644
643
643
642
642
643
644
644
644
644
645
646
647
645
644
645
642
644
660
687
720
760
800
845
888
921
941
925
872
810
743
695
674
666
658
644
624
601
583
569
559
557
560
566
572
576
583
594
606
617
626
633
641
647
650
654
658
659
660
659
661
661
662
663
663
664
665
667
668
669
668
667
669
670
670
672
672
672
673
673
674
673
674
675
676
677
678
679
680
680
679
680
682
682
683
685
686
685
687
688
688
690
690
692
694
696
697
699
700
700
702
703
705
708
709
711
714
717
719
720
723
726
729
732
735
739
743
748
752
754
757
762
764
770
773
776
781
784
788
789
792
793
796
797
799
801
802
804
805
803
799
798
797
794
790
786
782
777
772
765
759
752
746
741
737
733
727
721
715
710
706
701
697
693
690
688
685
683
680
677
675
672
672
670
670
670
670
668
666
664
663
662
662
661
662
663
663
662
661
661
660
660
659
659
661
662
662
661
661
661
660
661
660
660
661
663
664
662
662
663
662
661
661
662
663
664
663
662
663
663
661
661
661
662
663
663
663
664
663
663
661
660
659
659
660
660
660
660
660
660
659
658
659
660
658
658
657
657
657
656
657
657
657
657
656
658
657
656
656
655
655
654
653
655
655
654
655
656
654
655
654
654
654
655
655
655
655
654
653
652
652
652
653
652
654
654
652
651
652
651
651
652
652
652
651
653
652
651
651
649
649
648
650
650
651
653
652
652
650
651
651
649
650
651
651
652
652
651
650
650
649
651
651
649
650
652
652
652
651
648
649
649
649
650
651
651
650
649
649
648
649
649
649
650
651
651
650
649
650
650
648
648
648
650
650
651
650
649
648
648
649
650
652
653
655
658
662
666
667
667
667
667
667
668
669
667
666
667
669
673
675
677
677
679
679
678
676
673
672
672
674
673
671
670
669
667
663
660
658
657
655
654
653
652
651
649
647
647
646
645
646
645
645
646
648
646
645
644
643
642
642
643
644
645
645
645
644
645
645
643
643
644
643
644
645
646
644
645
645
645
644
645
647
650
651
649
647
647
645
646
658
683
717
758
798
843
886
920
941
934
884
821
753
703
681
672
664
651
630
604
586
572
562
559
563
569
574
578
582
591
604
616
627
635
643
650
654
656
659
660
660
662
663
664
666
667
666
665
666
667
666
666
669
671
672
673
673
673
672
674
672
673
675
676
678
679
679
678
678
679
679
681
682
683
683
684
685
684
684
686
685
687
690
693
694
693
695
696
697
696
699
702
703
705
707
709
711
711
712
715
718
721
724
727
729
732
736
740
742
745
749
753
758
763
767
769
773
776
780
783
786
788
791
794
796
798
799
800
802
801
801
802
802
802
800
796
793
788
782
776
771
766
760
753
748
743
737
732
726
720
714
710
707
702
698
694
691
687
683
680
679
676
675
674
673
671
669
667
666
665
663
663
664
664
662
661
660
659
659
659
658
658
659
660
659
659
659
658
658
657
660
660
660
660
659
659
659
658
658
659
659
659
661
660
660
661
660
658
659
658
658
660
660
660
660
659
659
659
658
659
659
659
659
659
660
659
657
657
657
657
657
657
657
658
658
657
656
656
657
655
655
656
656
656
656
655
653
653
653
653
654
654
654
656
656
654
653
653
652
651
652
653
654
654
652
653
653
653
651
651
652
652
652
653
653
654
651
649
650
650
651
653
652
651
651
650
649
650
650
650
651
651
651
652
651
649
650
650
649
649
649
650
652
651
651
651
650
649
649
650
650
650
650
649
649
649
651
650
649
650
649
650
650
648
649
649
648
648
648
648
648
649
649
650
650
649
648
648
648
648
647
648
650
650
650
649
650
654
656
657
660
663
665
668
667
666
664
663
664
663
663
664
669
673
676
677
676
676
676
675
673
672
671
672
673
672
669
666
665
664
663
660
657
655
654
654
652
650
648
648
649
648
647
647
647
645
643
643
643
642
643
645
645
644
643
642
642
643
642
641
643
643
643
644
644
643
643
642
643
644
644
645
645
646
645
645
647
646
646
646
645
642
640
646
661
689
726
764
803
844
882
910
924
902
849
791
730
692
682
679
670
658
637
616
598
584
571
566
568
572
576
582
586
593
603
613
623
630
637
643
648
652
656
657
657
658
659
658
658
662
664
665
665
665
665
666
667
665
666
668
669
671
673
674
673
672
671
671
672
674
676
677
678
679
678
677
678
680
681
681
682
684
684
684
684
686
689
689
692
692
693
695
697
698
696
697
699
703
705
707
709
712
712
713
717
719
721
724
727
732
736
739
742
745
748
750
754
759
762
766
770
775
778
779
782
785
787
789
791
794
796
796
797
799
798
795
794
792
790
788
785
782
777
769
762
758
753
747
742
737
731
725
720
714
709
706
701
695
691
689
687
684
680
677
675
673
671
670
666
665
666
665
663
661
659
658
657
657
658
659
660
660
659
658
656
654
654
655
657
656
657
657
656
656
657
656
655
658
658
657
658
658
658
656
656
656
656
656
658
658
657
656
656
657
657
657
657
657
657
657
659
658
657
656
656
655
653
653
654
655
657
656
657
657
655
653
654
654
652
653
655
656
656
654
654
653
654
653
654
653
652
652
651
650
650
650
650
650
652
652
652
652
651
650
650
650
650
650
651
651
651
651
649
650
649
646
648
648
648
650
650
649
647
647
647
649
647
645
647
647
647
646
645
644
644
644
646
646
646
647
647
648
645
645
645
645
645
646
646
647
647
646
646
646
647
646
644
645
645
646
647
646
645
645
645
645
645
645
646
644
646
648
645
643
642
643
643
645
645
645
646
647
650
650
651
655
658
660
662
662
661
661
661
660
659
658
659
663
668
672
674
672
671
670
669
667
667
665
665
666
666
665
663
660
656
655
654
652
651
650
648
647
646
644
641
639
639
639
640
639
639
640
638
638
636
637
638
639
637
637
638
637
637
637
636
636
635
636
636
637
636
636
635
635
635
635
637
636
637
637
637
637
638
641
639
637
637
635
637
652
677
710
747
786
827
866
895
914
901
850
794
733
688
675
668
661
653
635
612
591
577
565
558
561
564
566
573
576
584
595
605
615
623
631
637
641
644
648
650
653
655
654
652
654
655
656
658
658
661
660
660
660
660
660
661
661
662
664
666
666
666
666
667
667
666
668
670
671
672
674
672
671
671
673
674
674
677
679
680
681
681
681
681
681
683
685
687
689
690
690
692
694
695
696
698
701
702
706
708
709
712
715
717
720
723
726
730
733
738
741
744
748
749
753
757
762
766
769
772
775
776
777
780
782
784
786
789
789
790
790
788
786
783
781
777
773
771
767
761
757
751
744
738
733
727
721
717
713
708
703
699
693
689
686
684
681
678
676
673
670
668
667
664
662
662
661
660
660
660
658
657
655
654
653
654
654
654
654
654
653
654
653
652
653
653
653
654
654
654
652
653
652
652
653
652
652
654
655
655
654
652
652
652
652
652
654
655
654
653
653
652
651
652
652
653
652
654
652
652
654
653
652
650
650
652
653
652
653
653
651
650
648
648
649
650
650
648
648
649
647
647
648
648
648
648
649
650
648
649
648
645
644
646
645
646
646
646
647
646
646
647
644
643
644
644
645
646
645
645
645
644
643
643
643
645
645
645
645
646
645
644
642
641
641
641
644
645
645
644
644
644
643
642
642
644
643
644
642
643
642
641
641
641
641
641
642
643
643
642
642
643
641
641
641
641
641
641
642
642
641
642
640
640
641
640
642
643
641
642
641
641
640
641
640
642
642
641
641
640
639
640
641
640
640
639
641
642
642
643
643
645
647
649
653
656
658
661
661
660
658
658
657
656
656
659
661
665
668
670
669
668
669
669
667
665
665
665
666
664
662
661
660
658
655
652
651
650
649
646
645
644
641
639
638
638
639
639
638
637
637
636
635
636
636
636
637
637
637
636
635
634
633
634
634
636
636
635
637
637
636
635
636
635
636
636
636
636
637
637
638
638
638
639
638
638
637
636
645
666
696
733
772
816
861
900
927
