-1013
-1015
-1016
-1019
-1019
-1018
-1017
-1016
-1016
-1017
-1019
-1021
-1023
-1025
-1024
-1023
-1021
-1019
-1018
-1019
-1022
-1025
-1026
-1028
-1027
-1025
-1023
-1021
-1021
-1021
-1023
-1027
-1028
-1028
-1028
-1026
-1024
-1022
-1022
-1023
-1025
-1028
-1029
-1029
-1029
-1028
-1024
-1022
-1022
-1022
-1024
-1027
-1029
-1030
-1028
-1027
-1026
-1024
-1023
-1023
-1025
-1026
-1028
-1028
-1028
-1027
-1024
-1022
-1022
-1024
-1025
-1028
-1029
-1028
-1028
-1026
-1024
-1022
-1022
-1024
-1026
-1028
-1029
-1030
-1029
-1027
-1025
-1023
-1022
-1022
-1025
-1028
-1029
-1030
-1029
-1026
-1021
-1018
-1017
-1015
-1014
-1015
-1016
-1017
-1016
-1014
-1011
-1011
-1013
-1014
-1015
-1016
-1013
-1011
-1011
-1008
-1005
-1004
-1005
-1009
-1013
-1015
-1016
-1018
-1018
-1014
-1013
-1014
-1016
-1019
-1022
-1023
-1023
-1024
-1024
-1022
-1021
-1023
-1023
-1024
-1028
-1030
-1030
-1032
-1031
-1029
-1026
-1025
-1025
-1027
-1029
-1031
-1032
-1033
-1031
-1029
-1028
-1026
-1027
-1028
-1030
-1032
-1034
-1034
-1032
-1029
-1027
-1026
-1026
-1027
-1027
-1028
-1029
-1030
-1029
-1028
-1018
-998
-971
-939
-907
-872
-838
-812
-788
-796
-847
-899
-943
-976
-988
-992
-999
-1008
-1020
-1036
-1048
-1060
-1072
-1079
-1084
-1087
-1088
-1085
-1081
-1076
-1067
-1057
-1048
-1045
-1040
-1036
-1033
-1030
-1024
-1020
-1018
-1016
-1016
-1017
-1018
-1019
-1019
-1017
-1015
-1012
-1009
-1008
-1009
-1011
-1012
-1013
-1013
-1012
-1008
-1005
-1003
-1002
-1003
-1005
-1007
-1008
-1007
-1006
-1002
-999
-996
-996
-998
-999
-1000
-1002
-1001
-1000
-997
-994
-992
-992
-993
-995
-997
-998
-996
-994
-991
-987
-984
-986
-987
-987
-988
-989
-987
-984
-980
-977
-974
-973
-973
-974
-975
-974
-972
-969
-965
-961
-957
-955
-956
-957
-958
-958
-957
-955
-952
-947
-945
-944
-945
-947
-949
-949
-949
-947
-943
-942
-941
-942
-945
-949
-952
-955
-957
-956
-956
-957
-959
-963
-967
-972
-976
-979
-981
-983
-983
-982
-984
-988
-992
-996
-1000
-1003
-1004
-1005
-1004
-1003
-1004
-1006
-1009
-1011
-1014
-1015
-1016
-1014
-1012
-1010
-1010
-1011
-1014
-1016
-1017
-1018
-1018
-1015
-1013
-1011
-1010
-1011
-1013
-1014
-1016
-1017
-1016
-1015
-1011
-1009
-1009
-1009
-1010
-1013
-1014
-1016
-1015
-1014
-1011
-1009
-1009
-1010
-1013
-1014
-1014
-1016
-1016
-1015
-1012
-1009
-1009
-1009
-1012
-1015
-1016
-1017
-1017
-1014
-1012
-1011
-1012
-1013
-1014
-1017
-1018
-1019
-1018
-1016
-1014
-1013
-1014
-1014
-1017
-1019
-1021
-1022
-1022
-1019
-1017
-1015
-1016
-1018
-1020
-1022
-1024
-1025
-1024
-1022
-1020
-1018
-1018
-1020
-1021
-1024
-1025
-1025
-1024
-1022
-1020
-1018
-1019
-1021
-1023
-1025
-1026
-1027
-1025
-1023
-1021
-1019
-1020
-1021
-1024
-1026
-1027
-1027
-1026
-1023
-1021
-1020
-1020
-1021
-1024
-1026
-1028
-1028
-1026
-1024
-1021
-1020
-1021
-1023
-1026
-1028
-1029
-1029
-1026
-1024
-1023
-1022
-1024
-1025
-1028
-1030
-1030
-1029
-1027
-1024
-1020
-1022
-1023
-1024
-1026
-1028
-1030
-1030
-1028
-1025
-1024
-1022
-1023
-1025
-1028
-1029
-1029
-1028
-1027
-1025
-1023
-1023
-1023
-1025
-1026
-1029
-1029
-1027
-1024
-1020
-1015
-1011
-1010
-1012
-1014
-1017
-1017
-1016
-1015
-1014
-1013
-1012
-1011
-1011
-1011
-1011
-1011
-1009
-1007
-1005
-1006
-1008
-1009
-1010
-1013
-1016
-1017
-1017
-1017
-1018
-1017
-1018
-1019
-1020
-1022
-1025
-1026
-1026
-1025
-1023
-1023
-1023
-1025
-1027
-1030
-1033
-1034
-1033
-1030
-1027
-1026
-1026
-1027
-1028
-1030
-1032
-1033
-1032
-1029
-1028
-1026
-1025
-1028
-1029
-1031
-1032
-1033
-1032
-1030
-1027
-1026
-1023
-1022
-1026
-1028
-1030
-1034
-1029
-1013
-987
-954
-920
-883
-846
-814
-788
-775
-811
-868
-918
-960
-982
-988
-992
-1001
-1015
-1036
-1052
-1062
-1073
-1082
-1084
-1087
-1090
-1088
-1088
-1086
-1079
-1066
-1055
-1045
-1038
-1034
-1033
-1033
-1031
-1028
-1026
-1022
-1018
-1017
-1017
-1018
-1019
-1022
-1021
-1021
-1018
-1015
-1012
-1011
-1012
-1012
-1014
-1015
-1015
-1015
-1012
-1010
-1007
-1006
-1005
-1008
-1008
-1009
-1010
-1010
-1008
-1005
-1002
-1000
-1000
-1002
-1003
-1005
-1005
-1005
-1002
-998
-996
-996
-996
-999
-999
-1000
-1000
-999
-995
-993
-990
-989
-988
-988
-990
-990
-990
-987
-984
-980
-977
-975
-974
-974
-973
-973
-972
-970
-966
-962
-958
-956
-956
-957
-956
-956
-955
-953
-950
-947
-944
-943
-944
-945
-947
-948
-948
-947
-944
-943
-942
-943
-945
-949
-952
-955
-959
-960
-961
-961
-963
-966
-970
-975
-980
-984
-986
-988
-989
-988
-989
-992
-995
-998
-1003
-1006
-1008
-1009
-1009
-1007
-1007
-1009
-1010
-1014
-1017
-1018
-1020
-1018
-1014
-1013
-1012
-1012
-1013
-1016
-1018
-1019
-1019
-1018
-1015
-1012
-1011
-1011
-1013
-1015
-1016
-1017
-1017
-1015
-1013
-1010
-1008
-1011
-1013
-1014
-1015
-1016
-1016
-1015
-1013
-1011
-1010
-1011
-1013
-1014
-1016
-1017
-1017
-1016
-1013
-1011
-1010
-1012
-1013
-1016
-1019
-1020
-1018
-1016
-1014
-1012
-1011
-1012
-1015
-1017
-1019
-1020
-1020
-1018
-1016
-1014
-1012
-1015
-1018
-1020
-1022
-1023
-1022
-1021
-1018
-1017
-1017
-1017
-1021
-1023
-1025
-1024
-1024
-1022
-1021
-1019
-1019
-1020
-1021
-1024
-1026
-1027
-1025
-1023
-1022
-1020
-1019
-1021
-1023
-1025
-1027
-1027
-1026
-1024
-1023
-1021
-1020
-1022
-1024
-1026
-1026
-1027
-1027
-1025
-1023
-1020
-1021
-1022
-1024
-1027
-1029
-1028
-1027
-1025
-1023
-1022
-1022
-1023
-1025
-1027
-1030
-1030
-1029
-1026
-1023
-1021
-1022
-1024
-1027
-1029
-1030
-1030
-1028
-1026
-1024
-1022
-1022
-1024
-1028
-1029
-1030
-1031
-1030
-1027
-1024
-1023
-1023
-1026
-1029
-1031
-1031
-1032
-1030
-1028
-1025
-1024
-1026
-1027
-1030
-1032
-1033
-1034
-1032
-1027
-1025
-1024
-1024
-1023
-1022
-1020
-1019
-1019
-1019
-1016
-1014
-1013
-1014
-1017
-1021
-1024
-1024
-1022
-1018
-1013
-1009
-1007
-1007
-1009
-1011
-1015
-1018
-1020
-1018
-1015
-1014
-1012
-1014
-1019
-1023
-1026
-1029
-1029
-1027
-1024
-1022
-1022
-1024
-1029
-1032
-1034
-1035
-1036
-1034
-1031
-1029
-1029
-1030
-1033
-1035
-1037
-1036
-1035
-1034
-1033
-1030
-1030
-1031
-1034
-1036
-1037
-1038
-1037
-1035
-1032
-1030
-1030
-1030
-1034
-1035
-1036
-1034
-1032
-1031
-1028
-1026
-1028
-1028
-1018
-998
-968
-935
-899
-860
-828
-802
-790
-828
-887
-935
-975
-995
-996
-996
-1000
-1008
-1027
-1045
-1059
-1073
-1083
-1089
-1092
-1091
-1087
-1084
-1084
-1080
-1072
-1066
-1060
-1053
-1046
-1038
-1032
-1029
-1027
-1027
-1029
-1029
-1030
-1030
-1027
-1024
-1020
-1017
-1018
-1019
-1021
-1023
-1024
-1024
-1021
-1019
-1016
-1013
-1013
-1014
-1017
-1019
-1019
-1019
-1017
-1015
-1012
-1009
-1009
-1010
-1013
-1015
-1014
-1014
-1012
-1010
-1006
-1005
-1005
-1007
-1009
-1010
-1012
-1011
-1009
-1006
-1003
-1001
-1001
-1003
-1005
-1005
-1004
-1004
-1002
-998
-994
-991
-991
-992
-992
-992
-992
-990
-987
-983
-979
-976
-975
-975
-977
-977
-976
-973
-970
-966
-963
-962
-961
-961
-963
-964
-965
-963
-961
-957
-955
-954
-954
-957
-959
-961
-963
-964
-964
-963
-962
-964
-968
-972
-977
-980
-984
-985
-985
-985
-986
-989
-993
-998
-1004
-1007
-1009
-1011
-1010
-1008
-1008
-1010
-1012
-1016
-1021
-1023
-1024
-1024
-1022
-1020
-1019
-1020
-1022
-1024
-1026
-1028
-1028
-1026
-1024
-1021
-1019
-1020
-1021
-1025
-1026
-1027
-1028
-1027
-1024
-1020
-1019
-1018
-1020
-1023
-1025
-1027
-1027
-1025
-1023
-1020
-1018
-1018
-1019
-1021
-1023
-1025
-1025
-1024
-1022
-1019
-1017
-1017
-1019
-1023
-1025
-1026
-1026
-1023
-1021
-1019
-1019
-1020
-1021
-1023
-1026
-1028
-1029
-1027
-1022
-1019
-1019
-1021
-1022
-1024
-1027
-1028
-1028
-1026
-1025
-1023
-1023
-1024
-1026
-1029
-1029
-1030
-1029
-1028
-1025
-1023
-1023
-1024
-1027
-1029
-1032
-1032
-1032
-1030
-1027
-1025
-1024
-1024
-1028
-1031
-1032
-1033
-1033
-1031
-1029
-1026
-1024
-1025
-1028
-1031
-1033
-1034
-1035
-1032
-1028
-1027
-1026
-1027
-1029
-1032
-1033
-1035
-1035
-1032
-1029
-1026
-1025
-1025
-1027
-1031
-1033
-1034
-1034
-1033
-1030
-1028
-1028
-1028
-1031
-1032
-1034
-1035
-1036
-1033
-1030
-1027
-1026
-1029
-1031
-1032
-1035
-1036
-1035
-1033
-1030
-1027
-1026
-1028
-1032
-1034
-1035
-1035
-1035
-1033
-1030
-1029
-1030
-1030
-1032
-1033
-1036
-1036
-1035
-1032
-1029
-1028
-1027
-1027
-1028
-1027
-1025
-1026
-1024
-1021
-1019
-1019
-1018
-1018
-1023
-1027
-1028
-1028
-1025
-1019
-1014
-1011
-1010
-1010
-1013
-1016
-1020
-1023
-1022
-1019
-1018
-1018
-1018
-1021
-1024
-1027
-1031
-1032
-1030
-1027
-1025
-1024
-1024
-1029
-1032
-1035
-1037
-1039
-1038
-1036
-1033
-1031
-1032
-1033
-1036
-1040
-1040
-1039
-1038
-1036
-1033
-1032
-1032
-1034
-1037
-1040
-1041
-1040
-1038
-1036
-1032
-1031
-1032
-1033
-1035
-1037
-1036
-1034
-1032
-1029
-1028
-1029
-1032
-1031
-1020
-998
-969
-939
-904
-870
-842
-819
-812
-853
-906
-945
-977
-994
-994
-993
-999
-1008
-1024
-1040
-1054
-1068
-1078
-1083
-1085
-1087
-1085
-1081
-1081
-1082
-1078
-1070
-1062
-1055
-1048
-1039
-1033
-1029
-1028
-1028
-1030
-1032
-1032
-1030
-1027
-1024
-1022
-1020
-1020
-1022
-1023
-1024
-1024
-1023
-1021
-1018
-1015
-1014
-1014
-1016
-1019
-1020
-1021
-1019
-1015
-1011
-1009
-1010
-1011
-1014
-1016
-1017
-1017
-1015
-1012
-1009
-1006
-1006
-1007
-1009
-1010
-1011
-1011
-1010
-1007
-1003
-1001
-1000
-1001
-1003
-1003
-1004
-1004
-1001
-998
-995
-991
-991
-992
-992
-993
-994
-993
-989
-985
-979
-977
-977
-977
-978
-978
-977
-975
-972
-969
-965
-963
-963
-964
-964
-965
-966
-965
-963
-959
-956
-954
-955
-957
-960
-963
-964
-966
-966
-964
-963
-964
-967
-971
-976
-980
-982
-984
-985
-985
-984
-985
-989
-993
-998
-1002
-1006
-1006
-1007
-1006
-1006
-1006
-1008
-1012
-1015
-1018
-1019
-1020
-1018
-1016
-1014
-1014
-1016
-1017
-1020
-1023
-1024
-1024
-1022
-1018
-1016
-1015
-1016
-1018
-1020
-1022
-1023
-1023
-1019
-1016
-1014
-1013
-1015
-1016
-1018
-1020
-1021
-1020
-1018
-1015
-1013
-1013
-1014
-1017
-1019
-1020
-1019
-1018
-1016
-1014
-1013
-1012
-1013
-1015
-1017
-1019
-1020
-1019
-1016
-1013
-1011
-1011
-1012
-1015
-1018
-1019
-1020
-1020
-1018
-1016
-1014
-1014
-1014
-1017
-1020
-1022
-1022
-1023
-1020
-1014
-1013
-1014
-1015
-1018
-1020
-1022
-1022
-1021
-1018
-1015
-1014
-1015
-1016
-1019
-1021
-1022
-1022
-1021
-1019
-1017
-1015
-1016
-1018
-1020
-1022
-1023
-1024
-1022
-1019
-1017
-1016
-1016
-1017
-1019
-1022
-1023
-1023
-1022
-1020
-1016
-1015
-1015
-1018
-1021
-1023
-1024
-1023
-1022
-1019
-1016
-1015
-1016
-1019
-1021
-1023
-1024
-1025
-1024
-1019
-1016
-1016
-1016
-1018
-1020
-1023
-1023
-1023
-1021
-1019
-1017
-1016
-1016
-1018
-1020
-1023
-1023
-1023
-1021
-1020
-1017
-1016
-1017
-1018
-1021
-1022
-1024
-1023
-1022
-1019
-1016
-1016
-1017
-1018
-1020
-1022
-1022
-1019
-1014
-1009
-1004
-1003
-1004
-1006
-1009
-1009
-1010
-1012
-1011
-1008
-1005
-1003
-1002
-1002
-1003
-1004
-1004
-1003
-1002
-1001
-1002
-1001
-1002
-1005
-1008
-1009
-1012
-1013
-1012
-1010
-1009
-1008
-1008
-1012
-1016
-1018
-1020
-1022
-1021
-1018
-1016
-1016
-1018
-1021
-1024
-1026
-1025
-1024
-1022
-1020
-1018
-1017
-1019
-1022
-1024
-1025
-1024
-1024
-1022
-1019
-1017
-1018
-1019
-1020
-1022
-1024
-1025
-1023
-1019
-1016
-1013
-1012
-1012
-1015
-1017
-1021
-1021
-1009
-985
-953
-919
-886
-851
-821
-797
-779
-804
-860
-907
-945
-971
-976
-979
-987
-1000
-1020
-1037
-1049
-1058
-1065
-1068
-1072
-1075
-1076
-1078
-1077
-1073
-1062
-1050
-1038
-1031
-1025
-1021
-1021
-1020
-1019
-1017
-1015
-1011
-1008
-1006
-1006
-1007
-1008
-1010
-1011
-1010
-1007
-1003
-1001
-999
-1000
-1005
-1020
-1031
-997
-986
-992
-992
-950
-975
-994
-994
-998
-999
-999
-977
-989
-993
-991
-990
-990
-992
-994
-995
-996
-995
-992
-989
-987
-985
-986
-988
-988
-989
-990
-988
-985
-981
-978
-977
-976
-978
-979
-980
-979
-976
-970
-902
-922
-998
-971
-1000
-988
-968
-962
-957
-943
-948
-948
-944
-969
-960
-938
-946
-941
-939
-930
-934
-934
-934
-935
-936
-937
-939
-940
-939
-936
-934
-934
-936
-939
-944
-949
-952
-954
-955
-956
-956
-958
-962
-965
-970
-975
-979
-982
-984
-984
-983
-983
-987
-991
-995
-999
-1002
-1004
-1004
-1003
-1002
-1001
-1003
-1006
-1009
-1011
-1011
-1011
-1011
-1009
-1006
-1007
-1007
-1009
-1011
-1013
-1015
-1014
-1012
-1009
-1006
-1006
-1006
-1008
-1010
-1012
-1013
-1012
-1010
-1007
-1005
-1004
-1005
-1007
-1009
-1010
-1010
-1011
-1010
-1007
-1003
-1003
-1003
-1006
-1009
-1011
-1012
-1012
-1010
-1007
-1003
-1002
-1004
-1007
-1009
-1011
-1012
-1012
-1009
-1007
-1006
-1006
-1006
-1009
-1012
-1014
-1015
-1015
-1012
-1009
-1008
-1007
-1009
-1011
-1014
-1016
-1017
-1017
-1014
-1011
-1010
-1010
-1012
-1014
-1015
-1017
-1019
-1020
-1016
-1013
-1012
-1011
-1013
-1016
-1018
-1019
-1019
-1019
-1018
-1015
-1014
-1014
-1015
-1016
-1019
-1021
-1021
-1020
-1018
-1014
-1013
-1014
-1016
-1018
-1020
-1023
-1023
-1021
-1019
-1016
-1015
-1016
-1017
-1018
-1021
-1023
-1023
-1021
-1019
-1016
-1015
-1015
-1017
-1019
-1021
-1022
-1023
-1022
-1020
-1018
-1016
-1016
-1018
-1020
-1021
-1023
-1024
-1023
-1020
-1017
-1015
-1016
-1018
-1021
-1024
-1024
-1024
-1023
-1020
-1018
-1017
-1017
-1020
-1023
-1025
-1025
-1025
-1023
-1021
-1018
-1017
-1018
-1020
-1022
-1024
-1026
-1026
-1023
-1021
-1019
-1017
-1018
-1019
-1020
-1020
-1017
-1014
-1011
-1008
-1006
-1005
-1007
-1008
-1010
-1014
-1018
-1017
-1014
-1010
-1004
-1000
-1000
-1002
-1004
-1005
-1006
-1009
-1009
-1007
-1006
-1005
-1007
-1009
-1013
-1017
-1020
-1021
-1018
-1015
-1012
-1013
-1015
-1019
-1022
-1025
-1027
-1028
-1026
-1022
-1020
-1020
-1021
-1023
-1024
-1028
-1029
-1028
-1026
-1023
-1022
-1022
-1023
-1024
-1027
-1028
-1028
-1028
-1028
-1024
-1020
-1020
-1023
-1025
-1027
-1029
-1028
-1027
-1022
-1017
-1015
-1015
-1016
-1021
-1024
-1017
-997
-967
-931
-894
-856
-823
-799
-781
-806
-865
-917
-955
-978
-980
-980
-986
-996
-1016
-1036
-1052
-1065
-1075
-1078
-1077
-1077
-1077
-1076
-1076
-1075
-1068
-1059
-1050
-1040
-1031
-1026
-1021
-1020
-1021
-1021
-1021
-1020
-1018
-1015
-1011
-1009
-1010
-1011
-1012
-1014
-1015
-1013
-1011
-1007
-1005
-1004
-1003
-1004
-1006
-1007
-1009
-1010
-1007
-1003
-1000
-999
-1000
-1002
-1003
-1004
-1005
-1004
-1002
-998
-994
-994
-996
-998
-1001
-1003
-1003
-1002
-999
-995
-992
-991
-991
-992
-993
-995
-995
-994
-990
-987
-984
-983
-982
-983
-984
-984
-984
-982
-978
-974
-969
-967
-966
-967
-968
-968
-966
-964
-961
-956
-952
-951
-949
-951
-952
-953
-952
-950
-947
-944
-940
-939
-940
-943
-945
-947
-948
-949
-948
-946
-945
-948
-950
-954
-958
-962
-966
-969
-970
-970
-971
-973
-977
-982
-987
-991
-994
-996
-996
-997
-996
-998
-1001
-1005
-1010
-1013
-1015
-1016
-1015
-1013
-1012
-1013
-1015
-1017
-1020
-1022
-1022
-1022
-1021
-1018
-1016
-1016
-1018
-1020
-1022
-1024
-1024
-1023
-1021
-1017
-1015
-1016
-1018
-1020
-1021
-1022
-1022
-1021
-1018
-1016
-1016
-1016
-1016
-1018
-1020
-1021
-1022
-1021
-1018
-1016
-1015
-1016
-1017
-1019
-1021
-1023
-1022
-1021
-1019
-1015
-1014
-1015
-1018
-1020
-1023
-1024
-1024
-1023
-1020
-1018
-1017
-1017
-1019
-1022
-1024
-1025
-1025
-1025
-1024
-1020
-1018
-1019
-1021
-1024
-1025
-1026
-1026
-1025
-1023
-1020
-1021
-1022
-1023
-1026
-1028
-1028
-1028
-1027
-1024
-1022
-1022
-1023
-1025
-1027
-1029
-1030
-1031
-1028
-1026
-1023
-1023
-1024
-1027
-1030
-1031
-1032
-1031
-1030
-1027
-1024
-1025
-1025
-1027
-1030
-1032
-1032
-1032
-1031
-1028
-1026
-1025
-1026
-1028
-1031
-1033
-1035
-1033
-1030
-1027
-1026
-1027
-1027
-1029
-1032
-1034
-1035
-1034
-1032
-1030
-1028
-1029
-1030
-1031
-1034
-1035
-1035
-1034
-1032
-1030
-1029
-1028
-1029
-1032
-1034
-1035
-1036
-1035
-1033
-1031
-1029
-1030
-1033
-1034
-1036
-1037
-1038
-1037
-1035
-1031
-1030
-1031
-1032
-1034
-1036
-1038
-1039
-1038
-1035
-1032
-1030
-1030
-1032
-1033
-1034
-1031
-1028
-1025
-1023
-1021
-1019
-1020
-1023
-1024
-1027
-1031
-1031
-1028
-1025
-1020
-1016
-1015
-1017
-1017
-1019
-1022
-1024
-1025
-1024
-1021
-1019
-1020
-1023
-1026
-1030
-1031
-1032
-1033
-1031
-1028
-1026
-1028
-1031
-1035
-1039
-1040
-1040
-1038
-1037
-1035
-1034
-1035
-1037
-1041
-1043
-1043
-1043
-1041
-1038
-1036
-1036
-1038
-1040
-1042
-1043
-1043
-1042
-1041
-1039
-1036
-1036
-1037
-1039
-1041
-1042
-1043
-1043
-1040
-1037
-1033
-1032
-1033
-1036
-1040
-1036
-1020
-996
-963
-930
-894
-862
-837
-817
-821
-870
-919
-957
-986
-996
-996
-998
-1006
-1019
-1039
-1054
-1067
-1078
-1084
-1087
-1089
-1091
-1092
-1092
-1092
-1091
-1085
-1075
-1065
-1056
-1048
-1043
-1040
-1040
-1039
-1039
-1039
-1037
-1035
-1032
-1029
-1029
-1029
-1030
-1032
-1032
-1033
-1031
-1028
-1025
-1022
-1022
-1024
-1025
-1027
-1029
-1029
-1026
-1023
-1020
-1017
-1017
-1019
-1021
-1023
-1025
-1025
-1022
-1019
-1017
-1015
-1016
-1017
-1019
-1020
-1021
-1020
-1019
-1016
-1014
-1012
-1011
-1011
-1013
-1014
-1016
-1015
-1012
-1010
-1006
-1003
-1003
-1004
-1005
-1005
-1005
-1004
-1000
-997
-993
-989
-988
-988
-989
-989
-988
-987
-985
-981
-976
-974
-974
-974
-975
-975
-975
-974
-973
-970
-967
-966
-967
-967
-968
-969
-971
-972
-972
-970
-969
-971
-973
-977
-981
-984
-988
-991
-991
-991
-991
-993
-996
-1002
-1007
-1011
-1013
-1014
-1014
-1015
-1015
-1017
-1019
-1023
-1026
-1029
-1032
-1033
-1033
-1031
-1029
-1029
-1031
-1033
-1036
-1040
-1040
-1039
-1037
-1034
-1033
-1034
-1035
-1036
-1039
-1041
-1040
-1039
-1036
-1033
-1031
-1031
-1031
-1034
-1037
-1038
-1039
-1038
-1034
-1032
-1031
-1030
-1031
-1032
-1034
-1035
-1035
-1034
-1033
-1030
-1028
-1029
-1030
-1033
-1036
-1036
-1035
-1035
-1032
-1029
-1029
-1029
-1030
-1032
-1034
-1036
-1036
-1035
-1032
-1031
-1030
-1030
-1031
-1033
-1035
-1037
-1037
-1037
-1035
-1032
-1030
-1031
-1032
-1035
-1036
-1038
-1039
-1037
-1035
-1033
-1031
-1032
-1034
-1037
-1039
-1040
-1040
-1038
-1035
-1033
-1033
-1033
-1035
-1037
-1038
-1040
-1041
-1039
-1037
-1035
-1035
-1034
-1035
-1038
-1039
-1040
-1041
-1040
-1038
-1035
-1034
-1035
-1036
-1038
-1040
-1041
-1041
-1040
-1037
-1034
-1033
-1034
-1036
-1039
-1040
-1040
-1041
-1040
-1038
-1035
-1033
-1034
-1037
-1038
-1041
-1041
-1041
-1039
-1037
-1036
-1035
-1036
-1037
-1040
-1041
-1040
-1040
-1039
-1037
-1036
-1035
-1035
-1037
-1039
-1040
-1042
-1042
-1039
-1038
-1036
-1035
-1036
-1038
-1039
-1041
-1040
-1039
-1038
-1035
-1031
-1028
-1026
-1027
-1028
-1029
-1030
-1029
-1027
-1024
-1023
-1025
-1026
-1028
-1029
-1027
-1025
-1022
-1019
-1017
-1015
-1016
-1019
-1024
-1027
-1028
-1028
-1029
-1027
-1025
-1025
-1026
-1028
-1032
-1034
-1032
-1033
-1033
-1033
-1032
-1032
-1033
-1035
-1037
-1040
-1041
-1041
-1040
-1037
-1035
-1035
-1036
-1037
-1038
-1040
-1042
-1042
-1041
-1039
-1037
-1035
-1035
-1036
-1039
-1040
-1041
-1042
-1042
-1039
-1036
-1035
-1035
-1036
-1037
-1036
-1035
-1033
-1031
-1030
-1031
-1028
-1014
-993
-966
-937
-904
-871
-842
-814
-804
-844
-895
-937
-974
-993
-998
-1002
-1007
-1014
-1031
-1045
-1059
-1072
-1083
-1090
-1094
-1094
-1091
-1086
-1082
-1078
-1070
-1063
-1058
-1053
-1048
-1043
-1039
-1033
-1028
-1026
-1025
-1025
-1026
-1027
-1028
-1027
-1025
-1022
-1019
-1018
-1018
-1019
-1020
-1020
-1021
-1021
-1018
-1017
-1013
-1012
-1013
-1014
-1015
-1017
-1017
-1015
-1013
-1010
-1007
-1007
-1008
-1008
-1009
-1011
-1011
-1009
-1007
-1005
-1002
-1002
-1002
-1004
-1004
-1006
-1006
-1004
-1001
-998
-995
-995
-994
-995
-997
-997
-996
-994
-990
-987
-983
-981
-982
-983
-982
-981
-980
-977
-973
-969
-965
-963
-963
-964
-964
-962
-961
-958
-954
-951
-948
-947
-947
-948
-949
-950
-949
-948
-947
-944
-943
-944
-946
-949
-952
-955
-956
-957
-957
-957
-958
-961
-966
-971
-975
-978
-981
-983
-983
-983
-984
-988
-991
-995
-999
-1003
-1004
-1004
-1003
-1002
-1005
-1006
-1008
-1012
-1016
-1017
-1017
-1016
-1014
-1013
-1012
-1013
-1015
-1017
-1019
-1021
-1020
-1018
-1016
-1014
-1013
-1014
-1015
-1017
-1019
-1020
-1018
-1016
-1014
-1011
-1010
-1011
-1012
-1014
-1015
-1017
-1016
-1013
-1010
-1008
-1007
-1008
-1010
-1012
-1014
-1015
-1014
-1011
-1009
-1007
-1008
-1009
-1010
-1010
-1012
-1013
-1012
-1011
-1009
-1007
-1006
-1007
-1010
-1012
-1014
-1014
-1013
-1011
-1008
-1007
-1007
-1009
-1011
-1013
-1015
-1016
-1015
-1013
-1011
-1009
-1008
-1010
-1012
-1014
-1015
-1016
-1015
-1014
-1012
-1009
-1010
-1012
-1014
-1016
-1018
-1018
-1017
-1015
-1012
-1011
-1011
-1013
-1015
-1016
-1018
-1020
-1018
-1014
-1012
-1011
-1012
-1014
-1017
-1018
-1019
-1018
-1016
-1013
-1012
-1011
-1012
-1014
-1016
-1018
-1020
-1020
-1018
-1016
-1013
-1012
-1012
-1014
-1016
-1018
-1019
-1020
-1018
-1015
-1013
-1012
-1012
-1014
-1017
-1019
-1020
-1019
-1018
-1015
-1013
-1011
-1012
-1014
-1017
-1019
-1020
-1020
-1018
-1016
-1014
-1013
-1014
-1015
-1017
-1019
-1021
-1021
-1019
-1017
-1014
-1013
-1013
-1015
-1017
-1020
-1020
-1019
-1017
-1015
-1011
-1008
-1007
-1006
-1006
-1007
-1008
-1007
-1005
-1003
-1001
-1002
-1005
-1007
-1008
-1007
-1006
-1003
-1000
-997
-995
-995
-995
-1000
-1004
-1007
-1007
-1006
-1005
-1003
-1001
-1004
-1008
-1011
-1014
-1015
-1014
-1014
-1013
-1011
-1010
-1012
-1014
-1017
-1020
-1022
-1022
-1022
-1021
-1017
-1014
-1014
-1016
-1018
-1021
-1022
-1022
-1021
-1019
-1017
-1015
-1015
-1016
-1019
-1021
-1022
-1022
-1022
-1019
-1016
-1015
-1015
-1016
-1018
-1018
-1017
-1016
-1015
-1013
-1010
-1010
-1011
-1000
-979
-952
-919
-883
-845
-809
-779
-761
-790
-849
-903
-948
-974
-980
-982
-987
-997
-1015
-1034
-1050
-1064
-1074
-1079
-1080
-1078
-1074
-1071
-1068
-1062
-1054
-1046
-1039
-1034
-1028
-1023
-1018
-1012
-1009
-1008
-1008
-1009
-1011
-1010
-1009
-1007
-1004
-1001
-999
-1000
-1001
-1002
-1003
-1004
-1003
-1001
-998
-996
-995
-995
-996
-997
-998
-999
-998
-996
-993
-990
-989
-990
-991
-992
-993
-994
-993
-991
-987
-984
-984
-984
-985
-987
-988
-989
-988
-984
-981
-979
-978
-977
-978
-979
-979
-979
-978
-975
-971
-966
-965
-964
-964
-964
-964
-963
-960
-957
-953
-949
-945
-945
-945
-945
-944
-942
-940
-936
-932
-928
-927
-927
-928
-929
-929
-928
-927
-924
-922
-920
-919
-921
-923
-926
-929
-931
-932
-932
-932
-933
-935
-940
-945
-951
-955
-957
-960
-961
-962
-963
-966
-970
-975
-980
-984
-986
-988
-987
-986
-986
-988
-991
-994
-997
-1000
-1002
-1001
-999
-998
-997
-998
-999
-1003
-1006
-1007
-1007
-1006
-1004
-1002
-1000
-1000
-1002
-1005
-1006
-1007
-1007
-1005
-1003
-1000
-999
-999
-1001
-1003
-1005
-1006
-1006
-1004
-1002
-999
-998
-998
-1000
-1002
-1004
-1006
-1006
-1004
-1001
-999
-998
-999
-999
-1001
-1005
-1005
-1005
-1005
-1002
-1000
-999
-1000
-1002
-1004
-1006
-1007
-1006
-1004
-1002
-1000
-999
-999
-1001
-1005
-1007
-1008
-1008
-1006
-1004
-1004
-1002
-1001
-1004
-1006
-1008
-1009
-1010
-1008
-1005
-1003
-1003
-1004
-1007
-1008
-1010
-1011
-1011
-1009
-1006
-1004
-1004
-1006
-1007
-1009
-1011
-1012
-1012
-1010
-1007
-1005
-1005
-1007
-1009
-1011
-1012
-1013
-1012
-1009
-1007
-1006
-1006
-1007
-1009
-1012
-1013
-1013
-1013
-1011
-1008
-1007
-1006
-1008
-1010
-1012
-1013
-1015
-1014
-1012
-1010
-1008
-1008
-1008
-1010
-1012
-1014
-1015
-1014
-1013
-1010
-1008
-1009
-1010
-1012
-1014
-1015
-1015
-1015
-1012
-1010
-1008
-1008
-1010
-1013
-1014
-1015
-1016
-1014
-1012
-1011
-1009
-1009
-1010
-1013
-1014
-1015
-1015
-1014
-1010
-1007
-1005
-1004
-1002
-1002
-1003
-1003
-1003
-1002
-1000
-997
-998
-999
-1002
-1003
-1004
-1003
-1000
-997
-995
-991
-990
-991
-995
-998
-1000
-1002
-1002
-1002
-1001
-999
-998
-1002
-1005
-1008
-1011
-1010
-1010
-1009
-1007
-1006
-1007
-1010
-1012
-1015
-1017
-1018
-1018
-1016
-1014
-1012
-1010
-1011
-1013
-1015
-1017
-1018
-1018
-1016
-1013
-1011
-1011
-1011
-1014
-1016
-1018
-1018
-1018
-1016
-1014
-1012
-1011
-1013
-1015
-1016
-1016
-1015
-1012
-1009
-1007
-1006
-1009
-1007
-994
-973
-942
-908
-871
-830
-794
-765
-755
-797
-858
-911
-952
-971
-973
-975
-981
-995
-1015
-1033
-1049
-1064
-1072
-1075
-1074
-1072
-1068
-1065
-1062
-1058
-1049
-1041
-1035
-1029
-1022
-1016
-1011
-1007
-1005
-1004
-1006
-1007
-1007
-1007
-1005
-1002
-998
-996
-995
-997
-998
-999
-999
-999
-998
-996
-993
-991
-991
-991
-993
-994
-996
-994
-993
-990
-987
-986
-987
-986
-988
-989
-990
-990
-988
-985
-982
-981
-981
-983
-984
-985
-987
-986
-983
-980
-977
-975
-975
-975
-976
-978
-977
-976
-973
-970
-966
-965
-964
-964
-964
-964
-963
-961
-958
-953
-948
-945
-944
-944
-944
-944
-943
-941
-938
-934
-930
-927
-926
-927
-929
-929
-928
-927
-924
-922
-920
-919
-920
-923
-926
-928
-930
-930
-930
-930
-930
-933
-937
-943
-946
-951
-955
-957
-959
-960
-961
-963
-968
-973
-977
-982
-985
-987
-986
-987
-986
-987
-990
-994
-998
-1000
-1003
-1003
-1002
-1001
-999
-1000
-1002
-1005
-1008
-1009
-1009
-1009
-1007
-1005
-1003
-1003
-1004
-1008
-1009
-1010
-1010
-1009
-1007
-1004
-1003
-1002
-1004
-1006
-1008
-1010
-1010
-1009
-1006
-1003
-1001
-1002
-1003
-1005
-1007
-1009
-1009
-1008
-1005
-1003
-1002
-1003
-1004
-1006
-1009
-1010
-1010
-1009
-1007
-1004
-1002
-1003
-1006
-1008
-1010
-1011
-1012
-1011
-1009
-1007
-1005
-1006
-1008
-1009
-1010
-1013
-1013
-1012
-1009
-1007
-1008
-1009
-1010
-1012
-1013
-1015
-1016
-1015
-1013
-1011
-1010
-1010
-1012
-1014
-1016
-1017
-1017
-1016
-1014
-1011
-1011
-1011
-1013
-1015
-1018
-1020
-1019
-1017
-1016
-1014
-1013
-1013
-1014
-1017
-1019
-1020
-1021
-1019
-1016
-1015
-1014
-1015
-1017
-1018
-1020
-1022
-1022
-1020
-1018
-1015
-1014
-1015
-1018
-1020
-1022
-1022
-1021
-1020
-1019
-1017
-1016
-1017
-1019
-1021
-1023
-1023
-1022
-1021
-1019
-1017
-1017
-1018
-1020
-1022
-1023
-1024
-1023
-1022
-1019
-1018
-1018
-1019
-1021
-1023
-1025
-1025
-1025
-1022
-1020
-1018
-1018
-1020
-1022
-1025
-1026
-1025
-1025
-1023
-1021
-1020
-1019
-1020
-1021
-1023
-1026
-1027
-1026
-1023
-1019
-1016
-1013
-1012
-1013
-1014
-1015
-1015
-1015
-1013
-1011
-1011
-1012
-1014
-1014
-1014
-1012
-1011
-1011
-1008
-1004
-1003
-1004
-1009
-1012
-1013
-1015
-1014
-1013
-1011
-1010
-1012
-1014
-1017
-1022
-1022
-1022
-1023
-1022
-1021
-1021
-1022
-1023
-1024
-1027
-1029
-1030
-1030
-1029
-1027
-1026
-1025
-1027
-1027
-1029
-1031
-1031
-1031
-1030
-1027
-1025
-1025
-1026
-1027
-1029
-1031
-1032
-1032
-1031
-1029
-1026
-1026
-1027
-1029
-1030
-1029
-1027
-1027
-1025
-1023
-1024
-1024
-1012
-992
-966
-935
-901
-866
-835
-810
-795
-831
-884
-929
-966
-988
-991
-993
-998
-1006
-1020
-1035
-1049
-1064
-1075
-1082
-1085
-1087
-1085
-1081
-1077
-1074
-1067
-1061
-1055
-1051
-1047
-1042
-1035
-1030
-1025
-1023
-1022
-1023
-1025
-1025
-1024
-1023
-1021
-1019
-1016
-1014
-1015
-1017
-1020
-1021
-1021
-1021
-1018
-1016
-1012
-1012
-1011
-1012
-1014
-1015
-1015
-1015
-1013
-1010
-1008
-1008
-1009
-1010
-1011
-1012
-1012
-1011
-1009
-1007
-1005
-1004
-1005
-1006
-1008
-1009
-1008
-1006
-1003
-1000
-998
-998
-999
-1001
-1002
-1002
-1001
-999
-995
-991
-988
-987
-987
-987
-988
-988
-987
-984
-980
-976
-973
-971
-970
-971
-971
-971
-969
-966
-963
-959
-958
-957
-958
-958
-960
-960
-959
-958
-954
-952
-951
-952
-954
-957
-961
-963
-965
-965
-965
-964
-966
-970
-974
-978
-982
-986
-988
-990
-991
-991
-994
-998
-1001
-1004
-1009
-1012
-1013
-1014
-1013
-1013
-1013
-1016
-1018
-1022
-1024
-1026
-1026
-1024
-1023
-1023
-1024
-1025
-1027
-1030
-1032
-1033
-1031
-1029
-1027
-1026
-1025
-1026
-1026
-1028
-1029
-1031
-1032
-1029
-1026
-1024
-1023
-1024
-1025
-1027
-1028
-1029
-1029
-1026
-1023
-1021
-1021
-1022
-1024
-1026
-1028
-1028
-1027
-1024
-1022
-1021
-1020
-1021
-1023
-1026
-1027
-1028
-1027
-1024
-1022
-1019
-1020
-1022
-1025
-1025
-1026
-1027
-1027
-1026
-1023
-1021
-1021
-1023
-1025
-1027
-1028
-1029
-1028
-1026
-1025
-1023
-1022
-1023
-1026
-1028
-1029
-1029
-1029
-1028
-1025
-1023
-1024
-1026
-1028
-1029
-1032
-1032
-1030
-1028
-1026
-1025
-1025
-1027
-1029
-1031
-1032
-1034
-1032
-1029
-1028
-1026
-1026
-1029
-1032
-1034
-1034
-1033
-1030
-1029
-1026
-1026
-1027
-1029
-1032
-1033
-1034
-1034
-1031
-1029
-1028
-1027
-1028
-1029
-1031
-1033
-1034
-1034
-1033
-1029
-1027
-1026
-1028
-1030
-1032
-1034
-1035
-1034
-1032
-1030
-1028
-1027
-1029
-1030
-1032
-1034
-1034
-1033
-1032
-1029
-1028
-1028
-1029
-1031
-1033
-1034
-1035
-1035
-1032
-1030
-1028
-1027
-1028
-1031
-1033
-1034
-1034
-1033
-1032
-1028
-1025
-1024
-1022
-1021
-1022
-1024
-1023
-1021
-1020
-1017
-1016
-1017
-1019
-1022
-1023
-1022
-1020
-1017
-1015
-1012
-1008
-1009
-1012
-1016
-1020
-1020
-1021
-1022
-1020
-1018
-1017
-1019
-1022
-1026
-1028
-1028
-1028
-1029
-1027
-1025
-1025
-1027
-1029
-1031
-1034
-1036
-1036
-1034
-1032
-1030
-1029
-1030
-1030
-1032
-1034
-1035
-1036
-1035
-1033
-1031
-1029
-1030
-1031
-1033
-1035
-1036
-1036
-1035
-1032
-1030
-1028
-1028
-1030
-1032
-1031
-1031
-1030
-1028
-1026
-1024
-1026
-1025
-1014
-993
-964
-933
-899
-862
-830
-803
-791
-828
-883
-929
-968
-988
-991
-993
-998
-1007
-1024
-1041
-1055
-1070
-1080
-1086
-1090
-1090
-1087
-1081
-1078
-1075
-1069
-1062
-1055
-1049
-1044
-1037
-1031
-1025
-1023
-1023
-1024
-1025
-1025
-1025
-1024
-1022
-1019
-1016
-1014
-1014
-1017
-1017
-1018
-1019
-1018
-1014
-1012
-1011
-1009
-1009
-1011
-1012
-1013
-1014
-1014
-1011
-1008
-1005
-1005
-1006
-1008
-1008
-1009
-1009
-1009
-1006
-1003
-1001
-1000
-1000
-1002
-1003
-1004
-1004
-1003
-1000
-996
-994
-994
-995
-996
-997
-997
-996
-994
-990
-987
-984
-982
-982
-983
-983
-983
-982
-978
-974
-970
-966
-964
-963
-963
-964
-964
-962
-960
-956
-952
-950
-948
-948
-948
-950
-950
-949
-948
-946
-943
-942
-942
-944
-946
-950
-952
-954
-955
-954
-954
-954
-958
-963
-967
-972
-976
-980
-981
-981
-981
-982
-986
-990
-995
-999
-1002
-1005
-1006
-1006
-1005
-1006
-1007
-1011
-1013
-1016
-1019
-1020
-1020
-1018
-1016
-1016
-1017
-1019
-1022
-1024
-1025
-1026
-1024
-1021
-1019
-1018
-1019
-1021
-1024
-1024
-1025
-1025
-1023
-1021
-1018
-1017
-1018
-1019
-1021
-1022
-1023
-1023
-1021
-1018
-1015
-1015
-1016
-1018
-1020
-1021
-1022
-1022
-1020
-1018
-1016
-1016
-1016
-1018
-1019
-1021
-1021
-1021
-1019
-1016
-1015
-1016
-1016
-1018
-1021
-1023
-1024
-1023
-1021
-1019
-1017
-1017
-1019
-1020
-1023
-1025
-1026
-1025
-1023
-1020
-1018
-1019
-1021
-1023
-1025
-1026
-1028
-1028
-1026
-1023
-1022
-1023
-1023
-1026
-1028
-1028
-1029
-1028
-1026
-1024
-1023
-1023
-1024
-1025
-1027
-1029
-1030
-1029
-1026
-1025
-1023
-1023
-1024
-1026
-1029
-1031
-1032
-1030
-1027
-1024
-1022
-1023
-1026
-1028
-1029
-1031
-1031
-1030
-1027
-1025
-1024
-1023
-1026
-1027
-1030
-1032
-1031
-1030
-1027
-1025
-1025
-1025
-1026
-1028
-1030
-1031
-1031
-1030
-1027
-1025
-1025
-1025
-1027
-1029
-1031
-1032
-1032
-1031
-1028
-1026
-1025
-1025
-1027
-1029
-1031
-1031
-1032
-1031
-1030
-1027
-1026
-1026
-1028
-1030
-1032
-1033
-1033
-1031
-1028
-1026
-1026
-1025
-1025
-1027
-1028
-1027
-1024
-1020
-1017
-1013
-1011
-1013
-1016
-1018
-1022
-1023
-1022
-1020
-1015
-1011
-1008
-1007
-1009
-1010
-1013
-1015
-1017
-1016
-1015
-1012
-1012
-1014
-1016
-1019
-1022
-1025
-1027
-1026
-1022
-1020
-1021
-1023
-1026
-1028
-1030
-1033
-1033
-1031
-1029
-1027
-1027
-1029
-1031
-1033
-1034
-1035
-1033
-1032
-1031
-1028
-1028
-1029
-1031
-1033
-1034
-1035
-1034
-1033
-1030
-1028
-1028
-1030
-1032
-1034
-1034
-1033
-1033
-1030
-1026
-1023
-1022
-1023
-1024
-1029
-1031
-1020
-998
-966
-930
-893
-855
-821
-794
-776
-802
-859
-913
-954
-979
-984
-988
-995
-1009
-1030
-1050
-1065
-1077
-1085
-1086
-1085
-1086
-1085
-1085
-1085
-1082
-1073
-1062
-1052
-1041
-1034
-1030
-1027
-1026
-1026
-1026
-1024
-1023
-1020
-1016
-1015
-1015
-1017
-1017
-1017
-1017
-1017
-1015
-1012
-1009
-1008
-1008
-1010
-1011
-1013
-1014
-1012
-1011
-1007
-1004
-1003
-1004
-1005
-1007
-1008
-1008
-1007
-1005
-1003
-1001
-998
-999
-1000
-1001
-1002
-1003
-1002
-1000
-997
-994
-993
-993
-994
-996
-996
-996
-995
-992
-989
-985
-984
-983
-984
-985
-985
-983
-982
-978
-974
-970
-968
-966
-966
-966
-965
-964
-961
-958
-953
-950
-947
-946
-947
-946
-946
-945
-945
-941
-937
-934
-934
-934
-935
-937
-938
-939
-938
-938
-936
-936
-938
-940
-945
-950
-954
-958
-960
-961
-963
-964
-967
-971
-977
-981
-985
-987
-990
-990
-990
-992
-994
-997
-1002
-1006
-1008
-1010
-1011
-1010
-1008
-1007
-1009
-1011
-1014
-1016
-1018
-1019
-1019
-1016
-1015
-1014
-1014
-1015
-1017
-1019
-1020
-1020
-1019
-1017
-1015
-1014
-1014
-1016
-1017
-1019
-1020
-1020
-1019
-1016
-1014
-1012
-1012
-1014
-1016
-1017
-1018
-1018
-1016
-1013
-1011
-1011
-1012
-1014
-1016
-1017
-1018
-1018
-1016
-1015
-1013
-1012
-1011
-1013
-1015
-1017
-1019
-1018
-1017
-1015
-1014
-1012
-1013
-1016
-1018
-1019
-1020
-1020
-1019
-1016
-1014
-1013
-1015
-1017
-1019
-1020
-1022
-1022
-1021
-1019
-1017
-1016
-1017
-1019
-1021
-1022
-1023
-1023
-1022
-1020
-1018
-1018
-1018
-1021
-1023
-1024
-1024
-1024
-1023
-1021
-1019
-1020
-1020
-1022
-1023
-1024
-1026
-1026
-1024
-1022
-1020
-1021
-1022
-1023
-1026
-1026
-1027
-1026
-1023
-1021
-1020
-1020
-1021
-1023
-1026
-1027
-1027
-1028
-1026
-1023
-1021
-1021
-1022
-1024
-1027
-1029
-1028
-1027
-1025
-1024
-1023
-1023
-1023
-1025
-1026
-1027
-1027
-1027
-1027
-1024
-1021
-1022
-1023
-1025
-1027
-1029
-1029
-1029
-1027
-1024
-1023
-1023
-1026
-1027
-1028
-1029
-1029
-1028
-1026
-1025
-1024
-1024
-1025
-1027
-1029
-1030
-1030
-1030
-1028
-1025
-1025
-1025
-1026
-1028
-1030
-1031
-1029
-1026
-1023
-1019
-1015
-1014
-1015
-1016
-1017
-1019
-1020
-1020
-1018
-1017
-1015
-1014
-1014
-1014
-1013
-1014
-1014
-1011
-1010
-1009
-1010
-1012
-1014
-1015
-1018
-1020
-1019
-1019
-1019
-1019
-1020
-1021
-1022
-1024
-1026
-1028
-1028
-1028
-1027
-1026
-1026
-1027
-1029
-1031
-1033
-1035
-1034
-1032
-1030
-1028
-1028
-1028
-1029
-1032
-1033
-1034
-1035
-1034
-1031
-1029
-1028
-1029
-1030
-1032
-1034
-1035
-1035
-1033
-1031
-1029
-1029
-1029
-1029
-1028
-1029
-1030
-1029
-1028
-1028
-1019
-1000
-974
-945
-914
-880
-846
-820
-797
-810
-861
-910
-949
-980
-990
-993
-997
-1007
-1021
-1037
-1049
-1061
-1073
-1081
-1087
-1089
-1089
-1088
-1084
-1080
-1073
-1064
-1056
-1051
-1047
-1042
-1039
-1035
-1031
-1026
-1022
-1023
-1024
-1025
-1026
-1027
-1025
-1024
-1022
-1021
-1018
-1017
-1018
-1019
-1020
-1020
-1020
-1019
-1016
-1013
-1011
-1012
-1012
-1014
-1015
-1016
-1016
-1014
-1012
-1009
-1008
-1007
-1008
-1010
-1012
-1013
-1013
-1011
-1008
-1005
-1003
-1003
-1005
-1006
-1006
-1007
-1007
-1005
-1003
-1001
-1000
-999
-1000
-1001
-1000
-1000
-998
-996
-993
-989
-988
-987
-987
-987
-986
-984
-983
-981
-977
-974
-971
-970
-969
-968
-968
-967
-966
-963
-961
-958
-956
-954
-955
-956
-956
-955
-954
-953
-952
-951
-951
-953
-956
-959
-961
-963
-964
-965
-964
-966
-968
-972
-976
-980
-984
-987
-990
-991
-993
-995
-997
-1000
-1003
-1006
-1009
-1011
-1015
-1015
-1014
-1015
-1015
-1017
-1020
-1022
-1025
-1026
-1027
-1027
-1025
-1025
-1025
-1025
-1027
-1029
-1030
-1031
-1030
-1028
-1027
-1026
-1026
-1026
-1027
-1027
-1028
-1029
-1029
-1027
-1024
-1022
-1023
-1024
-1025
-1027
-1027
-1028
-1027
-1025
-1023
-1022
-1022
-1023
-1025
-1027
-1027
-1026
-1025
-1023
-1022
-1022
-1022
-1023
-1023
-1025
-1027
-1027
-1026
-1024
-1023
-1023
-1023
-1023
-1024
-1025
-1026
-1026
-1026
-1024
-1023
-1023
-1023
-1023
-1025
-1026
-1026
-1028
-1028
-1027
-1025
-1024
-1024
-1025
-1027
-1029
-1030
-1030
-1028
-1027
-1026
-1026
-1027
-1028
-1028
-1029
-1030
-1030
-1029
-1028
-1027
-1026
-1027
-1028
-1029
-1031
-1032
-1032
-1030
-1029
-1027
-1026
-1026
-1028
-1030
-1032
-1033
-1033
-1031
-1029
-1027
-1027
-1027
-1029
-1031
-1033
-1033
-1033
-1031
-1030
-1028
-1027
-1028
-1030
-1031
-1032
-1034
-1033
-1031
-1029
-1027
-1027
-1028
-1030
-1032
-1032
-1032
-1032
-1031
-1029
-1029
-1028
-1029
-1031
-1033
-1034
-1034
-1034
-1032
-1030
-1028
-1028
-1029
-1031
-1033
-1033
-1034
-1034
-1032
-1030
-1028
-1028
-1029
-1032
-1033
-1034
-1035
-1034
-1032
-1031
-1030
-1029
-1030
-1032
-1032
-1034
-1034
-1034
-1033
-1030
-1027
-1026
-1025
-1024
-1022
-1022
-1023
-1022
-1020
-1019
-1018
-1017
-1021
-1023
-1024
-1024
-1022
-1018
-1015
-1013
-1011
-1011
-1012
-1015
-1019
-1021
-1023
-1021
-1019
-1018
-1017
-1018
-1020
-1024
-1027
-1029
-1028
-1027
-1026
-1025
-1025
-1026
-1029
-1032
-1034
-1035
-1035
-1034
-1032
-1031
-1031
-1031
-1032
-1034
-1035
-1035
-1035
-1035
-1033
-1032
-1030
-1031
-1033
-1035
-1035
-1036
-1036
-1034
-1032
-1031
-1031
-1031
-1032
-1034
-1035
-1035
-1033
-1029
-1027
-1026
-1026
-1028
-1029
-1019
-1001
-973
-943
-909
-874
-843
-819
-802
-830
-882
-924
-960
-984
-987
-988
-993
-1002
-1019
-1036
-1051
-1064
-1075
-1081
-1084
-1084
-1083
-1081
-1080
-1080
-1075
-1067
-1059
-1051
-1044
-1036
-1031
-1027
-1027
-1027
-1026
-1026
-1026
-1024
-1021
-1019
-1018
-1017
-1017
-1019
-1019
-1019
-1019
-1019
-1017
-1014
-1011
-1010
-1011
-1013
-1014
-1014
-1014
-1014
-1011
-1008
-1007
-1007
-1008
-1008
-1008
-1008
-1009
-1008
-1006
-1004
-1002
-1001
-1002
-1004
-1004
-1005
-1005
-1002
-1000
-998
-996
-995
-996
-997
-997
-997
-996
-994
-992
-989
-987
-986
-986
-986
-986
-985
-984
-981
-977
-974
-972
-970
-969
-969
-969
-968
-966
-963
-960
-957
-954
-953
-952
-953
-953
-953
-952
-951
-948
-946
-945
-944
-945
-946
-949
-951
-952
-952
-952
-952
-953
-955
-959
-963
-967
-969
-971
-972
-974
-975
-977
-980
-984
-989
-992
-995
-996
-997
-997
-998
-1000
-1002
-1005
-1007
-1010
-1012
-1012
-1012
-1011
-1011
-1011
-1012
-1013
-1015
-1018
-1018
-1018
-1016
-1014
-1013
-1013
-1014
-1015
-1016
-1018
-1019
-1018
-1016
-1013
-1012
-1011
-1012
-1013
-1015
-1016
-1016
-1016
-1013
-1011
-1010
-1010
-1011
-1012
-1013
-1014
-1015
-1013
-1010
-1008
-1007
-1008
-1010
-1012
-1013
-1014
-1015
-1014
-1011
-1010
-1009
-1009
-1010
-1011
-1014
-1014
-1014
-1014
-1013
-1012
-1010
-1009
-1011
-1013
-1014
-1015
-1015
-1015
-1014
-1012
-1011
-1011
-1013
-1015
-1016
-1017
-1017
-1016
-1015
-1014
-1013
-1013
-1014
-1016
-1017
-1019
-1020
-1019
-1017
-1015
-1014
-1014
-1016
-1017
-1019
-1020
-1020
-1019
-1017
-1015
-1016
-1015
-1017
-1019
-1020
-1020
-1020
-1019
-1017
-1015
-1015
-1017
-1017
-1018
-1019
-1020
-1020
-1019
-1017
-1015
-1014
-1016
-1017
-1018
-1020
-1021
-1021
-1020
-1019
-1017
-1017
-1018
-1018
-1019
-1022
-1022
-1022
-1021
-1020
-1018
-1017
-1017
-1019
-1020
-1021
-1021
-1021
-1021
-1019
-1018
-1019
-1019
-1020
-1021
-1022
-1023
-1023
-1021
-1021
-1019
-1019
-1019
-1020
-1022
-1023
-1023
-1023
-1022
-1020
-1018
-1017
-1018
-1020
-1022
-1024
-1024
-1023
-1021
-1018
-1015
-1014
-1013
-1012
-1010
-1011
-1011
-1010
-1008
-1008
-1007
-1008
-1009
-1011
-1011
-1009
-1007
-1005
-1003
-1001
-999
-999
-1001
-1005
-1008
-1009
-1009
-1009
-1009
-1007
-1008
-1009
-1012
-1014
-1017
-1017
-1017
-1016
-1015
-1015
-1015
-1016
-1018
-1020
-1021
-1023
-1024
-1023
-1022
-1020
-1019
-1020
-1022
-1024
-1024
-1025
-1025
-1024
-1022
-1020
-1019
-1020
-1022
-1022
-1024
-1025
-1024
-1023
-1022
-1021
-1020
-1020
-1020
-1021
-1022
-1022
-1020
-1017
-1017
-1015
-1015
-1018
-1013
-996
-971
-939
-905
-868
-830
-799
-775
-779
-831
-885
-931
-967
-980
-982
-985
-994
-1008
-1028
-1045
-1060
-1073
-1079
-1081
-1081
-1078
-1075
-1073
-1071
-1065
-1057
-1048
-1041
-1035
-1028
-1022
-1018
-1014
-1013
-1013
-1014
-1014
-1014
-1013
-1011
-1009
-1006
-1005
-1004
-1005
-1006
-1006
-1006
-1006
-1004
-1002
-1000
-999
-999
-999
-1001
-1002
-1001
-1000
-998
-997
-996
-994
-994
-996
-997
-997
-997
-996
-994
-992
-990
-989
-989
-990
-991
-991
-990
-989
-987
-984
-983
-982
-982
-983
-983
-984
-983
-981
-977
-974
-972
-970
-970
-971
-971
-969
-968
-965
-961
-957
-955
-953
-952
-951
-950
-949
-948
-945
-941
-937
-934
-933
-933
-933
-933
-932
-932
-928
-926
-923
-922
-922
-924
-925
-927
-929
-930
-931
-932
-932
-933
-936
-939
-944
-948
-952
-955
-957
-959
-961
-962
-964
-968
-972
-976
-980
-982
-983
-984
-985
-987
-988
-991
-994
-996
-998
-999
-999
-999
-998
-998
-999
-1001
-1002
-1004
-1005
-1004
-1003
-1002
-1001
-1001
-1002
-1002
-1004
-1004
-1004
-1004
-1003
-1002
-1000
-998
-999
-1000
-1001
-1003
-1003
-1002
-1001
-999
-998
-998
-998
-998
-1000
-1001
-1001
-1001
-999
-998
-996
-996
-998
-999
-999
-1000
-1001
-1001
-1001
-999
-996
-996
-997
-999
-1001
-1002
-1002
-1002
-1001
-999
-998
-998
-999
-1000
-1002
-1003
-1004
-1004
-1002
-1001
-1000
-1001
-1001
-1002
-1004
-1005
-1006
-1006
-1004
-1003
-1002
-1002
-1003
-1005
-1006
-1007
-1007
-1007
-1005
-1004
-1003
-1004
-1004
-1005
-1006
-1007
-1008
-1008
-1006
-1005
-1004
-1004
-1005
-1007
-1008
-1009
-1009
-1008
-1007
-1005
-1004
-1004
-1005
-1007
-1009
-1009
-1008
-1006
-1006
-1005
-1004
-1005
-1006
-1008
-1008
-1010
-1011
-1009
-1008
-1006
-1005
-1005
-1007
-1009
-1009
-1010
-1010
-1010
-1007
-1005
-1006
-1006
-1008
-1010
-1010
-1011
-1010
-1009
-1008
-1006
-1005
-1006
-1007
-1010
-1011
-1011
-1011
-1010
-1007
-1006
-1005
-1007
-1009
-1010
-1009
-1010
-1007
-1005
-999
-995
-994
-994
-995
-996
-998
-999
-999
-1000
-998
-995
-992
-992
-992
-992
-992
-992
-991
-991
-990
-991
-992
-993
-994
-996
-998
-999
-1000
-1001
-1001
-1001
-1000
-1000
-1002
-1004
-1006
-1008
-1008
-1008
-1007
-1006
-1007
-1008
-1010
-1012
-1013
-1014
-1013
-1011
-1009
-1008
-1008
-1008
-1011
-1012
-1013
-1013
-1013
-1010
-1008
-1008
-1008
-1008
-1010
-1011
-1012
-1014
-1013
-1011
-1008
-1007
-1006
-1006
-1006
-1007
-1007
-1008
-1009
-1005
-990
-965
-933
-901
-867
-830
-798
-773
-759
-796
-851
-901
-942
-963
-968
-972
-981
-995
-1013
-1029
-1041
-1053
-1061
-1066
-1068
-1068
-1067
-1066
-1064
-1057
-1046
-1036
-1027
-1022
-1017
-1013
-1011
-1009
-1005
-1003
-1001
-1000
-998
-999
-1001
-1000
-1000
-1000
-998
-996
-994
-992
-992
-993
-995
-995
-995
-994
-992
-990
-988
-986
-987
-988
-989
-989
-990
-990
-988
-986
-984
-983
-983
-985
-986
-986
-987
-986
-983
-981
-980
-978
-978
-979
-980
-981
-981
-980
-977
-974
-972
-970
-970
-972
-971
-972
-972
-970
-966
-963
-960
-958
-958
-958
-957
-955
-954
-951
-947
-944
-941
-939
-938
-938
-937
-935
-934
-932
-929
-926
-925
-924
-923
-924
-924
-924
-924
-923
-921
-921
-919
-919
-922
-925
-929
-932
-935
-937
-937
-938
-941
-943
-947
-953
-957
-961
-964
-966
-967
-968
-970
-973
-977
-981
-984
-987
-989
-990
-990
-991
-992
-993
-996
-999
-1000
-1002
-1003
-1002
-1001
-1000
-1001
-1001
-1003
-1004
-1004
-1005
-1006
-1005
-1003
-1002
-1000
-1000
-1001
-1003
-1005
-1005
-1005
-1004
-1002
-1001
-1000
-1000
-1001
-1003
-1004
-1004
-1003
-1001
-999
-998
-997
-997
-1000
-1002
-1003
-1004
-1004
-1003
-1001
-999
-998
-999
-1001
-1002
-1004
-1004
-1003
-1002
-1001
-999
-999
-1000
-1002
-1004
-1005
-1006
-1005
-1004
-1002
-1001
-1001
-1003
-1004
-1005
-1006
-1007
-1006
-1004
-1003
-1002
-1002
-1004
-1006
-1007
-1008
-1008
-1008
-1007
-1006
-1005
-1005
-1006
-1007
-1008
-1009
-1010
-1011
-1010
-1008
-1006
-1007
-1008
-1009
-1010
-1012
-1013
-1012
-1010
-1009
-1007
-1007
-1009
-1010
-1011
-1012
-1013
-1012
-1010
-1009
-1009
-1009
-1010
-1013
-1015
-1015
-1015
-1014
-1012
-1011
-1010
-1009
-1010
-1012
-1015
-1015
-1014
-1013
-1012
-1011
-1009
-1010
-1012
-1014
-1015
-1015
-1016
-1015
-1012
-1011
-1010
-1011
-1012
-1015
-1016
-1017
-1018
-1016
-1014
-1013
-1012
-1012
-1013
-1015
-1017
-1018
-1019
-1017
-1014
-1013
-1012
-1012
-1013
-1014
-1015
-1015
-1012
-1008
-1005
-1002
-1002
-1001
-1004
-1006
-1008
-1010
-1010
-1007
-1004
-1001
-998
-997
-999
-998
-999
-1001
-1004
-1004
-1004
-1002
-1001
-1003
-1005
-1006
-1008
-1011
-1013
-1012
-1010
-1009
-1008
-1010
-1013
-1017
-1019
-1020
-1020
-1019
-1017
-1016
-1016
-1018
-1021
-1022
-1023
-1023
-1022
-1019
-1018
-1018
-1018
-1018
-1020
-1022
-1023
-1023
-1023
-1021
-1019
-1018
-1017
-1020
-1022
-1024
-1023
-1023
-1022
-1020
-1018
-1015
-1013
-1014
-1015
-1017
-1020
-1018
-1004
-980
-951
-919
-886
-853
-825
-803
-795
-834
-884
-921
-955
-973
-975
-979
-988
-999
-1017
-1033
-1044
-1054
-1063
-1068
-1072
-1074
-1075
-1075
-1075
-1073
-1065
-1054
-1043
-1035
-1030
-1026
-1023
-1022
-1022
-1020
-1017
-1014
-1011
-1010
-1010
-1011
-1013
-1014
-1014
-1013
-1011
-1008
-1005
-1005
-1004
-1005
-1006
-1007
-1008
-1007
-1005
-1002
-1001
-999
-1000
-1001
-1002
-1003
-1004
-1004
-1002
-999
-997
-995
-996
-998
-1000
-1000
-1000
-998
-996
-994
-992
-992
-993
-994
-994
-995
-994
-993
-991
-989
-985
-983
-984
-984
-984
-984
-984
-982
-979
-976
-973
-971
-971
-970
-970
-969
-966
-965
-961
-956
-954
-953
-952
-952
-952
-952
-951
-949
-945
-942
-941
-940
-941
-942
-943
-943
-943
-943
-942
-941
-941
-942
-945
-947
-951
-954
-957
-959
-960
-961
-962
-966
-968
-971
-976
-980
-983
-986
-987
-987
-988
-989
-992
-996
-998
-1001
-1004
-1004
-1004
-1003
-1003
-1005
-1007
-1008
-1010
-1012
-1012
-1011
-1009
-1009
-1009
-1008
-1009
-1011
-1012
-1013
-1014
-1013
-1011
-1009
-1008
-1008
-1009
-1010
-1010
-1011
-1011
-1010
-1009
-1008
-1008
-1007
-1007
-1009
-1010
-1010
-1010
-1008
-1006
-1005
-1005
-1005
-1006
-1008
-1009
-1011
-1011
-1009
-1008
-1006
-1006
-1006
-1007
-1009
-1009
-1010
-1010
-1008
-1007
-1006
-1005
-1006
-1007
-1009
-1011
-1011
-1010
-1008
-1008
-1006
-1007
-1008
-1010
-1011
-1011
-1012
-1012
-1011
-1010
-1008
-1007
-1008
-1010
-1011
-1012
-1013
-1013
-1013
-1013
-1011
-1010
-1010
-1011
-1013
-1013
-1013
-1014
-1013
-1012
-1011
-1011
-1011
-1011
-1013
-1015
-1016
-1016
-1014
-1012
-1011
-1011
-1011
-1012
-1013
-1014
-1015
-1015
-1014
-1012
-1011
-1011
-1012
-1013
-1014
-1015
-1015
-1015
-1014
-1013
-1013
-1013
-1013
-1013
-1014
-1016
-1016
-1016
-1014
-1012
-1012
-1012
-1013
-1014
-1015
-1015
-1015
-1016
-1016
-1015
-1013
-1014
-1014
-1014
-1015
-1017
-1016
-1015
-1013
-1014
-1013
-1012
-1014
-1015
-1016
-1015
-1014
-1012
-1007
-1003
-1001
-1001
-1002
-1003
-1005
-1006
-1006
-1006
-1006
-1005
-1003
-999
-997
-996
-998
-998
-997
-997
-997
-999
-1001
-1001
-1001
-1003
-1005
-1005
-1006
-1007
-1007
-1008
-1008
-1007
-1007
-1010
-1011
-1013
-1015
-1016
-1016
-1015
-1014
-1014
-1016
-1017
-1017
-1019
-1019
-1017
-1016
-1015
-1015
-1015
-1016
-1017
-1019
-1020
-1020
-1018
-1015
-1015
-1014
-1014
-1015
-1017
-1018
-1018
-1018
-1018
-1016
-1013
-1012
-1011
-1010
-1011
-1011
-1012
-1016
-1012
-998
-975
-945
-915
-883
-851
-822
-798
-784
-819
-867
-906
-942
-964
-969
-974
-982
-992
-1010
-1024
-1036
-1047
-1056
-1062
-1067
-1070
-1071
-1069
-1067
-1063
-1053
-1043
-1034
-1027
-1023
-1019
-1016
-1015
-1012
-1009
-1006
-1005
-1003
-1003
-1004
-1004
-1006
-1005
-1004
-1001
-999
-997
-997
-997
-998
-999
-1000
-999
-998
-997
-994
-993
-992
-993
-994
-994
-995
-994
-992
-991
-990
-989
-989
-989
-990
-991
-991
-990
-989
-987
-985
-984
-984
-983
-983
-983
-982
-982
-980
-978
-976
-974
-974
-974
-974
-974
-974
-973
-969
-966
-965
-962
-960
-959
-958
-958
-957
-956
-952
-949
-946
-944
-943
-942
-941
-941
-940
-938
-935
-932
-930
-929
-928
-928
-929
-930
-929
-929
-928
-927
-926
-926
-927
-929
-933
-935
-938
-940
-942
-942
-944
-946
-949
-953
-958
-961
-965
-967
-967
-969
-971
-972
-975
-979
-983
-987
-988
-989
-990
-990
-989
-990
-992
-994
-996
-998
-999
-999
-998
-998
-996
-996
-996
-998
-1000
-1000
-1000
-999
-998
-997
-996
-996
-996
-996
-997
-998
-998
-997
-996
-994
-992
-992
-993
-994
-996
-997
-997
-996
-995
-994
-992
-992
-993
-993
-995
-995
-995
-994
-993
-991
-991
-991
-992
-993
-995
-995
-995
-996
-995
-994
-993
-993
-994
-996
-997
-997
-997
-997
-996
-995
-994
-995
-996
-996
-997
-998
-999
-998
-997
-997
-996
-996
-998
-998
-1000
-1001
-1001
-1001
-1000
-999
-998
-999
-1000
-1001
-1002
-1004
-1003
-1002
-1000
-999
-998
-999
-1001
-1001
-1002
-1003
-1003
-1002
-1000
-999
-999
-1000
-1001
-1001
-1002
-1003
-1003
-1002
-1000
-998
-998
-1000
-1001
-1001
-1003
-1004
-1003
-1002
-1001
-999
-998
-999
-1001
-1002
-1003
-1004
-1004
-1003
-1002
-1000
-999
-1000
-1002
-1003
-1003
-1004
-1003
-1002
-1000
-1000
-1000
-1001
-1002
-1003
-1005
-1005
-1005
-1004
-1001
-1000
-999
-999
-999
-999
-998
-993
-991
-989
-988
-987
-987
-988
-989
-993
-994
-994
-993
-991
-986
-982
-982
-982
-982
-983
-986
-988
-989
-988
-986
-986
-987
-989
-991
-994
-997
-998
-998
-997
-994
-994
-995
-997
-1000
-1003
-1006
-1006
-1005
-1003
-1001
-1000
-1002
-1003
-1004
-1006
-1007
-1006
-1005
-1004
-1003
-1002
-1002
-1003
-1004
-1005
-1006
-1007
-1005
-1003
-1002
-1002
-1002
-1003
-1004
-1005
-1006
-1005
-1003
-1001
-997
-995
-995
-996
-998
-1002
-997
-979
-952
-918
-883
-846
-809
-780
-756
-759
-810
-865
-911
-945
-956
-959
-963
-975
-991
-1013
-1029
-1043
-1053
-1058
-1058
-1057
-1058
-1058
-1058
-1055
-1049
-1038
-1027
-1019
-1012
-1005
-1003
-1001
-999
-999
-997
-995
-993
-991
-989
-989
-988
-988
-990
-990
-989
-988
-987
-985
-983
-983
-983
-983
-984
-983
-983
-983
-981
-979
-977
-977
-978
-979
-979
-980
-979
-978
-976
-975
-974
-973
-973
-974
-975
-976
-975
-973
-971
-970
-969
-968
-969
-969
-969
-969
-968
-967
-964
-961
-959
-958
-958
-957
-957
-957
-955
-952
-949
-946
-943
-941
-941
-940
-938
-938
-936
-933
-929
-925
-923
-921
-921
-920
-919
-917
-916
-914
-911
-909
-908
-907
-907
-908
-909
-910
-910
-910
-909
-909
-910
-911
-914
-920
-924
-926
-929
-931
-933
-935
-938
-941
-946
-950
-953
-957
-960
-962
-962
-963
-966
-968
-971
-974
-976
-978
-980
-981
-981
-980
-980
-982
-984
-986
-987
-987
-987
-986
-985
-984
-984
-986
-987
-989
-989
-989
-988
-988
-986
-985
-986
-985
-985
-985
-986
-987
-987
-986
-985
-983
-982
-983
-983
-985
-986
-986
-986
-985
-984
-982
-982
-983
-984
-985
-985
-985
-985
-984
-982
-982
-982
-981
-983
-985
-987
-987
-986
-985
-984
-982
-982
-985
-985
-987
-988
-988
-987
-987
-985
-985
-985
-985
-987
-987
-988
-989
-989
-988
-987
-987
-988
-988
-989
-990
-991
-992
-992
-990
-988
-988
-988
-990
-991
-992
-992
-993
-993
-991
-990
-989
-990
-992
-993
-994
-995
-994
-994
-992
-990
-991
-993
-993
-993
-994
-995
-996
-995
-994
-992
-992
-992
-993
-994
-996
-996
-996
-994
-992
-991
-991
-992
-994
-996
-996
-997
-997
-995
-993
-993
-993
-993
-994
-996
-997
-997
-997
-996
-995
-993
-993
-994
-995
-996
-997
-998
-998
-996
-995
-993
-991
-991
-990
-988
-986
-986
-986
-984
-983
-983
-981
-982
-985
-988
-988
-988
-987
-982
-977
-975
-976
-975
-976
-978
-981
-983
-984
-983
-982
-983
-982
-983
-986
-989
-992
-993
-992
-990
-990
-990
-990
-992
-994
-997
-998
-998
-997
-996
-995
-996
-996
-996
-999
-1000
-1000
-1002
-1002
-1000
-997
-996
-997
-998
-1001
-1001
-1002
-1001
-1000
-999
-999
-998
-998
-999
-1000
-1000
-1000
-1000
-998
-994
-991
-990
-991
-993
-996
-991
-975
-949
-917
-883
-848
-814
-788
-766
-778
-831
-881
-920
-950
-957
-956
-961
-970
-984
-1004
-1020
-1034
-1045
-1050
-1052
-1053
-1053
-1052
-1050
-1050
-1046
-1039
-1029
-1021
-1014
-1008
-1002
-1000
-998
-997
-997
-996
-995
-993
-991
-990
-990
-990
-990
-991
-991
-991
-991
-989
-988
-985
-983
-984
-984
-984
-986
-986
-985
-983
-981
-980
-980
-980
-981
-982
-982
-981
-980
-979
-977
-975
-974
-975
-978
-978
-978
-979
-978
-975
-973
-971
-971
-971
-972
-972
-972
-972
-971
-968
-965
-963
-962
-962
-963
-962
-961
-959
-956
-953
-951
-948
-947
-946
-945
-944
-943
-941
-939
-936
-933
-931
-930
-929
-928
-928
-928
-927
-925
-922
-920
-918
-919
-920
-921
-922
-924
-924
-923
-923
-923
-923
-927
-930
-934
-938
-941
-943
-946
-947
-949
-951
-954
-958
-961
-965
-969
-970
-971
-971
-972
-975
-978
-981
-984
-987
-988
-990
-990
-990
-989
-989
-990
-992
-995
-996
-997
-997
-995
-994
-992
-993
-994
-994
-996
-997
-997
-997
-996
-995
-994
-994
-993
-994
-995
-995
-996
-995
-995
-992
-992
-992
-991
-991
-993
-993
-993
-994
-992
-992
-991
-991
-991
-991
-992
-993
-994
-994
-993
-991
-990
-989
-990
-992
-993
-995
-995
-995
-994
-992
-991
-991
-993
-994
-995
-996
-997
-996
-994
-993
-994
-993
-994
-995
-996
-998
-998
-998
-996
-995
-995
-995
-996
-997
-997
-999
-1000
-999
-998
-996
-996
-996
-997
-999
-999
-1001
-1000
-999
-999
-998
-997
-998
-1000
-1001
-1001
-1002
-1002
-1000
-999
-998
-999
-999
-999
-1001
-1002
-1002
-1002
-1001
-1000
-1000
-999
-999
-999
-1001
-1002
-1004
-1004
-1003
-1002
-1000
-1000
-999
-1001
-1002
-1004
-1004
-1004
-1003
-1001
-1001
-1000
-1001
-1002
-1004
-1005
-1006
-1006
-1005
-1003
-1002
-1001
-1001
-1002
-1004
-1006
-1006
-1005
-1004
-1002
-1001
-1001
-1002
-1002
-1001
-999
-997
-994
-991
-991
-990
-990
-991
-992
-995
-997
-998
-997
-994
-991
-987
-985
-985
-986
-986
-987
-989
-991
-991
-990
-990
-991
-992
-993
-995
-997
-999
-1002
-1001
-999
-998
-996
-998
-1000
-1004
-1005
-1006
-1007
-1007
-1006
-1005
-1004
-1004
-1007
-1009
-1010
-1011
-1009
-1007
-1005
-1004
-1005
-1007
-1008
-1009
-1009
-1009
-1009
-1007
-1005
-1005
-1005
-1007
-1008
-1009
-1011
-1010
-1008
-1006
-1002
-1000
-999
-1000
-1002
-1006
-1004
-992
-970
-939
-908
-874
-843
-816
-794
-786
-823
-870
-906
-938
-956
-958
-960
-970
-982
-1000
-1014
-1027
-1038
-1046
-1050
-1055
-1058
-1059
-1059
-1057
-1056
-1050
-1040
-1030
-1022
-1017
-1012
-1008
-1006
-1005
-1004
-1002
-1001
-999
-996
-996
-996
-997
-997
-997
-997
-996
-994
-992
-990
-988
-988
-990
-991
-991
-992
-991
-989
-986
-984
-984
-985
-987
-986
-988
-988
-986
-984
-984
-982
-981
-981
-983
-983
-984
-983
-982
-980
-978
-976
-976
-976
-977
-978
-978
-978
-976
-973
-971
-969
-967
-967
-966
-966
-965
-964
-962
-961
-957
-955
-953
-951
-951
-950
-949
-948
-946
-943
-941
-937
-935
-934
-934
-934
-933
-933
-931
-928
-924
-923
-923
-925
-925
-925
-927
-929
-928
-927
-926
-927
-928
-931
-933
-937
-940
-943
-945
-946
-947
-949
-952
-956
-960
-965
-967
-970
-971
-972
-972
-973
-975
-979
-982
-984
-986
-987
-988
-988
-987
-987
-988
-990
-992
-994
-995
-995
-994
-994
-993
-992
-992
-993
-994
-994
-996
-996
-994
-993
-991
-990
-991
-992
-993
-992
-993
-994
-993
-991
-989
-989
-989
-989
-990
-992
-993
-992
-990
-989
-988
-987
-989
-989
-990
-991
-992
-992
-991
-988
-987
-987
-988
-989
-989
-991
-991
-991
-990
-988
-988
-988
-988
-989
-991
-993
-992
-991
-990
-987
-987
-988
-990
-992
-992
-994
-996
-994
-992
-991
-990
-990
-991
-993
-994
-995
-995
-995
-994
-993
-991
-991
-992
-994
-995
-995
-996
-995
-993
-992
-991
-991
-992
-993
-993
-994
-995
-994
-993
-992
-991
-991
-993
-994
-994
-995
-995
-995
-993
-992
-992
-992
-992
-994
-996
-996
-996
-995
-993
-992
-991
-991
-993
-995
-996
-996
-996
-995
-995
-993
-992
-993
-994
-995
-996
-996
-996
-996
-995
-994
-993
-993
-994
-994
-994
-994
-991
-987
-983
-981
-981
-981
-982
-984
-984
-986
-987
-988
-986
-983
-980
-977
-977
-978
-979
-978
-979
-980
-980
-980
-979
-979
-981
-983
-986
-989
-990
-991
-991
-990
-988
-988
-990
-992
-994
-996
-997
-997
-996
-995
-995
-996
-998
-1000
-1000
-1000
-1000
-998
-997
-996
-997
-997
-998
-999
-1000
-1000
-1000
-999
-997
-996
-996
-997
-998
-1000
-1001
-1001
-1000
-999
-996
-994
-993
-991
-991
-992
-993
-995
-996
-984
-963
-933
-900
-868
-834
-802
-776
-757
-781
-833
-879
-917
-944
-951
-955
-963
-975
-994
-1011
-1024
-1036
-1046
-1050
-1053
-1055
-1055
-1054
-1052
-1047
-1037
-1027
-1018
-1011
-1006
-1003
-1000
-998
-996
-993
-990
-988
-987
-986
-987
-988
-988
-988
-987
-984
-983
-982
-981
-980
-980
-981
-981
-982
-981
-980
-978
-975
-975
-975
-976
-976
-976
-976
-976
-974
-972
-971
-969
-969
-969
-970
-970
-971
-972
-969
-967
-966
-965
-965
-964
-965
-966
-965
-964
-963
-960
-958
-957
-957
-957
-957
-956
-955
-953
-950
-947
-944
-942
-942
-940
-940
-939
-937
-935
-932
-928
-925
-923
-922
-921
-919
-919
-918
-916
-914
-911
-908
-907
-907
-908
-909
-909
-908
-908
-907
-906
-906
-907
-910
-911
-915
-919
-921
-923
-924
-926
-929
-932
-935
-939
-944
-948
-951
-953
-954
-955
-957
-959
-962
-965
-968
-971
-974
-975
-974
-975
-976
-975
-978
-980
-983
-984
-984
-984
-983
-982
-982
-982
-983
-985
-985
-986
-986
-985
-984
-982
-982
-983
-983
-984
-984
-985
-984
-983
-982
-980
-979
-979
-981
-981
-982
-982
-982
-981
-979
-979
-978
-979
-980
-981
-981
-982
-982
-980
-980
-979
-978
-978
-979
-980
-982
-982
-982
-982
-982
-980
-979
-979
-981
-982
-983
-984
-984
-983
-981
-980
-980
-981
-983
-985
-986
-986
-986
-985
-983
-982
-982
-983
-984
-985
-986
-988
-987
-987
-985
-984
-983
-985
-986
-987
-988
-989
-989
-988
-986
-984
-985
-987
-987
-988
-989
-990
-989
-989
-987
-986
-986
-986
-987
-988
-989
-989
-989
-988
-987
-987
-986
-987
-988
-991
-991
-991
-990
-989
-987
-987
-987
-988
-989
-991
-991
-991
-990
-989
-988
-987
-987
-988
-990
-991
-991
-991
-991
-990
-989
-988
-988
-988
-990
-991
-992
-992
-992
-989
-988
-988
-988
-989
-990
-991
-992
-992
-991
-990
-988
-987
-985
-984
-983
-981
-979
-979
-979
-977
-977
-976
-976
-979
-981
-983
-983
-982
-978
-974
-972
-970
-970
-970
-973
-975
-978
-979
-978
-977
-977
-977
-978
-981
-984
-986
-988
-987
-986
-985
-984
-985
-986
-989
-992
-993
-994
-994
-993
-992
-991
-992
-992
-993
-994
-995
-996
-997
-995
-993
-992
-992
-992
-994
-995
-996
-997
-996
-995
-993
-992
-992
-993
-994
-994
-995
-995
-993
-990
-988
-987
-987
-988
-991
-988
-972
-948
-915
-879
-842
-804
-772
-747
-742
-788
-846
-895
-932
-947
-949
-952
-961
-979
-1001
-1018
-1032
-1045
-1051
-1050
-1049
-1048
-1047
-1047
-1045
-1039
-1030
-1021
-1012
-1005
-998
-992
-990
-989
-988
-987
-987
-987
-985
-983
-981
-980
-979
-980
-980
-980
-980
-980
-979
-975
-973
-973
-973
-973
-974
-975
-975
-974
-973
-970
-969
-968
-968
-969
-970
-971
-971
-970
-969
-967
-964
-963
-963
-963
-964
-965
-964
-964
-964
-961
-960
-959
-958
-958
-958
-958
-958
-956
-955
-953
-951
-949
-948
-948
-947
-947
-945
-943
-940
-937
-934
-932
-930
-928
-928
-928
-926
-924
-922
-918
-915
-912
-911
-910
-910
-909
-907
-905
-903
-901
-898
-897
-898
-900
-899
-899
-901
-902
-902
-902
-903
-906
-908
-911
-915
-919
-923
-926
-928
-930
-932
-935
-939
-942
-947
-950
-953
-954
-955
-957
-957
-960
-964
-968
-970
-972
-973
-975
-974
-974
-975
-975
-976
-978
-980
-981
-982
-981
-979
-978
-979
-979
-979
-980
-982
-983
-983
-982
-981
-979
-978
-978
-980
-980
-981
-982
-982
-981
-980
-978
-977
-976
-977
-978
-979
-980
-980
-980
-979
-978
-977
-977
-977
-979
-979
-979
-979
-978
-978
-977
-976
-976
-977
-979
-980
-981
-981
-980
-980
-978
-977
-978
-980
-982
-983
-983
-984
-983
-981
-979
-979
-979
-981
-982
-983
-985
-985
-983
-982
-981
-981
-982
-982
-984
-985
-985
-985
-985
-983
-982
-982
-982
-983
-984
-985
-986
-986
-985
-984
-982
-981
-983
-985
-986
-986
-987
-987
-987
-985
-984
-985
-986
-986
-988
-988
-988
-989
-987
-985
-985
-985
-986
-987
-988
-989
-989
-988
-987
-986
-985
-985
-987
-989
-990
-990
-990
-989
-989
-987
-986
-986
-987
-988
-989
-990
-990
-991
-991
-989
-988
-988
-988
-989
-990
-992
-992
-990
-989
-989
-987
-989
-990
-991
-992
-992
-992
-991
-988
-986
-983
-980
-979
-978
-979
-980
-982
-981
-978
-976
-978
-979
-980
-981
-980
-977
-975
-974
-973
-970
-969
-970
-974
-977
-979
-979
-981
-980
-979
-979
-981
-982
-985
-987
-988
-987
-987
-987
-987
-988
-989
-990
-991
-993
-994
-994
-994
-993
-992
-992
-992
-992
-993
-994
-995
-995
-995
-994
-993
-992
-992
-993
-994
-995
-996
-997
-997
-995
-994
-993
-992
-992
-993
-993
-994
-993
-991
-989
-987
-989
-992
-985
-968
-943
-913
-881
-847
-814
-787
-764
-776
-828
-875
-913
-942
-951
-952
-957
-964
-975
-993
-1008
-1023
-1036
-1044
-1048
-1050
-1050
-1048
-1045
-1043
-1039
-1032
-1024
-1017
-1011
-1005
-1000
-995
-991
-990
-990
-990
-989
-989
-990
-988
-987
-985
-982
-981
-983
-985
-984
-984
-983
-982
-980
-979
-979
-979
-978
-979
-980
-979
-979
-978
-976
-973
-973
-972
-974
-974
-974
-975
-975
-974
-973
-972
-971
-970
-970
-970
-971
-971
-971
-970
-968
-966
-965
-964
-964
-965
-965
-965
-963
-961
-960
-956
-954
-953
-952
-952
-952
-952
-950
-946
-942
-940
-938
-936
-935
-935
-934
-933
-932
-929
-926
-922
-920
-919
-919
-919
-920
-919
-918
-917
-915
-914
-913
-914
-915
-917
-918
-919
-920
-921
-922
-923
-925
-929
-933
-936
-939
-943
-944
-945
-947
-949
-952
-956
-959
-962
-964
-967
-969
-970
-970
-971
-971
-972
-976
-980
-982
-983
-984
-984
-983
-982
-982
-984
-986
-987
-987
-986
-986
-985
-984
-984
-984
-986
-987
-988
-989
-988
-986
-985
-983
-982
-982
-983
-983
-985
-986
-986
-984
-982
-980
-980
-980
-981
-982
-983
-985
-985
-984
-982
-981
-979
-979
-982
-983
-984
-984
-984
-983
-981
-980
-979
-980
-981
-983
-984
-985
-984
-983
-981
-980
-981
-981
-981
-983
-984
-984
-984
-985
-983
-981
-981
-982
-982
-983
-986
-987
-987
-986
-984
-982
-982
-983
-984
-986
-988
-988
-988
-986
-985
-984
-983
-984
-985
-987
-988
-988
-988
-987
-985
-985
-986
-985
-986
-986
-987
-989
-989
-988
-987
-985
-985
-986
-988
-988
-989
-989
-989
-988
-987
-985
-985
-986
-987
-987
-988
-990
-990
-989
-988
-987
-987
-987
-987
-990
-991
-991
-989
-989
-988
-988
-987
-989
-990
-991
-991
-992
-992
-990
-988
-987
-987
-989
-991
-991
-990
-991
-991
-988
-985
-982
-979
-979
-979
-980
-981
-981
-979
-978
-977
-978
-979
-979
-980
-980
-977
-975
-973
-970
-968
-970
-971
-975
-977
-979
-980
-981
-980
-978
-978
-979
-980
-983
-987
-987
-987
-987
-987
-986
-987
-987
-988
-990
-992
-994
-994
-993
-992
-991
-990
-989
-989
-991
-992
-992
-994
-994
-992
-992
-991
-990
-990
-991
-992
-993
-994
-994
-992
-991
-989
-989
-989
-990
-990
-990
-988
-985
-985
-984
-986
-987
-978
-961
-935
-905
-873
-840
-809
-783
-762
-781
-831
-873
-910
-938
-946
-946
-951
-959
-973
-990
-1002
-1017
-1029
-1036
-1042
-1045
-1045
-1042
-1039
-1036
-1032
-1025
-1017
-1010
-1005
-998
-992
-989
-985
-984
-983
-983
-984
-984
-983
-981
-980
-979
-977
-976
-976
-977
-977
-977
-977
-976
-973
-972
-972
-971
-971
-971
-972
-972
-972
-971
-969
-968
-966
-965
-966
-967
-968
-969
-969
-967
-965
-963
-961
-961
-962
-962
-962
-963
-963
-961
-959
-957
-956
-956
-956
-955
-955
-955
-955
-952
-949
-946
-946
-945
-943
-942
-942
-941
-940
-938
-934
-930
-928
-927
-926
-926
-924
-924
-922
-919
-916
-914
-912
-911
-911
-910
-910
-910
-910
-908
-906
-905
-905
-905
-905
-907
-909
-912
-913
-913
-914
-915
-917
-920
-923
-926
-930
-934
-936
-938
-938
-941
-943
-946
-949
-952
-955
-958
-961
-962
-962
-963
-964
-966
-968
-971
-974
-975
-975
-975
-974
-973
-973
-974
-976
-977
-978
-978
-978
-976
-976
-975
-974
-975
-976
-976
-977
-978
-977
-975
-974
-973
-973
-974
-974
-974
-975
-976
-977
-974
-973
-971
-970
-971
-973
-974
-975
-975
-974
-972
-971
-971
-971
-972
-974
-974
-975
-975
-974
-973
-972
-971
-971
-973
-975
-976
-977
-977
-976
-974
-973
-973
-974
-975
-976
-978
-979
-979
-978
-977
-976
-976
-975
-976
-978
-979
-980
-981
-980
-978
-977
-977
-978
-978
-979
-981
-982
-982
-981
-980
-978
-978
-978
-980
-981
-981
-983
-983
-981
-980
-978
-978
-979
-980
-981
-983
-984
-983
-982
-979
-978
-978
-979
-980
-981
-983
-985
-985
-983
-980
-979
-978
-979
-981
-983
-984
-985
-984
-982
-980
-979
-979
-980
-983
-984
-985
-985
-985
-984
-981
-980
-981
-981
-983
-984
-985
-986
-985
-983
-981
-981
-980
-981
-983
-985
-986
-986
-984
-982
-979
-976
-974
-973
-971
-971
-972
-972
-972
-970
-967
-967
-969
-973
-975
-976
-974
-971
-968
-965
-963
-960
-961
-964
-968
-970
-971
-972
-971
-970
-969
-970
-972
-975
-980
-981
-981
-981
-981
-979
-978
-980
-981
-983
-986
-987
-989
-988
-987
-985
-984
-983
-984
-986
-987
-988
-989
-989
-988
-987
-985
-985
-985
-987
-988
-989
-989
-989
-988
-986
-984
-983
-984
-987
-987
-988
-986
-985
-982
-980
-977
-979
-983
-976
-958
-932
-899
-863
-825
-787
-757
-733
-742
-795
-851
-899
-934
-944
-946
-950
-960
-979
-999
-1016
-1030
-1042
-1048
-1048
-1046
-1043
-1041
-1039
-1036
-1029
-1020
-1011
-1004
-998
-991
-986
-983
-981
-980
-980
-980
-980
-979
-978
-977
-975
-974
-973
-973
-973
-974
-974
-974
-973
-970
-969
-967
-966
-967
-968
-969
-969
-969
-967
-965
-964
-963
-963
-963
-963
-962
-963
-964
-964
-962
-960
-959
-958
-958
-959
-960
-960
-960
-959
-957
-955
-953
-953
-952
-953
-952
-952
-951
-950
-948
-944
-943
-942
-941
-941
-940
-939
-937
-935
-931
-927
-924
-922
-921
-920
-919
-918
-916
-913
-910
-907
-905
-903
-903
-902
-901
-902
-900
-898
-895
-893
-892
-892
-894
-896
-897
-898
-899
-901
-901
-902
-904
-907
-912
-915
-919
-923
-926
-929
-931
-932
-934
-938
-942
-946
-950
-953
-956
-957
-958
-959
-960
-962
-965
-967
-970
-972
-973
-973
-973
-972
-972
-974
-975
-977
-978
-979
-978
-978
-977
-976
-976
-977
-977
-977
-979
-979
-978
-978
-977
-975
-975
-975
-976
-977
-978
-978
-977
-976
-975
-973
-973
-973
-975
-976
-977
-977
-977
-976
-974
-973
-973
-974
-975
-976
-976
-977
-977
-976
-975
-975
-974
-975
-976
-978
-979
-978
-978
-978
-977
-976
-976
-977
-978
-979
-980
-980
-979
-979
-978
-977
-977
-979
-979
-981
-983
-982
-981
-980
-979
-978
-979
-980
-981
-982
-983
-983
-982
-981
-980
-980
-979
-981
-982
-983
-985
-985
-984
-982
-980
-979
-979
-981
-983
-983
-984
-985
-985
-983
-982
-981
-982
-983
-984
-985
-986
-986
-985
-983
-982
-982
-982
-983
-984
-985
-986
-986
-986
-984
-982
-982
-982
-983
-985
-987
-987
-986
-985
-984
-983
-983
-983
-985
-986
-987
-987
-987
-986
-984
-984
-983
-984
-986
-988
-989
-989
-988
-987
-986
-985
-984
-985
-987
-988
-987
-988
-987
-985
-980
-975
-972
-972
-974
-976
-977
-977
-976
-976
-977
-977
-976
-977
-975
-973
-972
-972
-970
-968
-968
-968
-970
-972
-974
-976
-977
-979
-980
-980
-979
-980
-981
-982
-982
-983
-984
-986
-987
-988
-988
-988
-989
-989
-990
-991
-993
-993
-993
-992
-991
-990
-990
-991
-992
-994
-995
-995
-994
-993
-991
-991
-991
-991
-993
-993
-994
-995
-994
-993
-992
-991
-990
-989
-989
-988
-989
-989
-988
-991
-988
-971
-949
-919
-887
-853
-818
-787
-762
-752
-792
-847
-891
-928
-948
-951
-954
-962
-972
-990
-1003
-1017
-1031
-1041
-1045
-1048
-1050
-1050
-1047
-1044
-1039
-1030
-1020
-1014
-1009
-1004
-1000
-997
-993
-989
-986
-985
-985
-985
-986
-986
-986
-984
-983
-981
-980
-978
-978
-979
-980
-980
-980
-979
-977
-976
-975
-974
-974
-975
-976
-976
-975
-974
-973
-970
-970
-969
-969
-970
-971
-971
-972
-971
-970
-968
-967
-966
-966
-967
-968
-969
-968
-967
-965
-963
-961
-961
-960
-959
-960
-960
-959
-958
-956
-954
-952
-949
-948
-947
-946
-945
-944
-941
-938
-936
-934
-932
-930
-929
-928
-927
-926
-924
-921
-918
-917
-915
-914
-913
-912
-913
-915
-913
-911
-910
-910
-910
-911
-913
-915
-917
-918
-920
-921
-922
-924
-927
-931
-935
-939
-942
-946
-948
-950
-952
-954
-956
-959
-963
-966
-969
-972
-973
-973
-974
-975
-976
-978
-982
-983
-985
-985
-984
-982
-983
-983
-984
-985
-987
-989
-988
-988
-988
-987
-985
-984
-984
-985
-986
-986
-986
-986
-986
-984
-984
-984
-982
-983
-983
-984
-985
-986
-986
-984
-984
-982
-982
-983
-984
-985
-986
-984
-984
-984
-983
-982
-982
-984
-984
-984
-985
-985
-985
-983
-981
-982
-982
-983
-985
-985
-986
-985
-984
-983
-983
-984
-984
-984
-985
-987
-987
-987
-986
-985
-983
-984
-985
-987
-988
-988
-988
-988
-987
-985
-985
-986
-988
-988
-988
-989
-989
-989
-988
-988
-987
-987
-988
-988
-990
-991
-990
-989
-988
-986
-986
-987
-988
-989
-990
-991
-991
-991
-990
-989
-988
-987
-988
-989
-990
-992
-990
-990
-989
-987
-987
-988
-989
-990
-990
-991
-991
-990
-990
-988
-987
-987
-989
-990
-991
-991
-992
-991
-989
-989
-989
-990
-990
-991
-992
-993
-992
-992
-991
-990
-989
-989
-990
-991
-992
-992
-993
-992
-990
-988
-988
-989
-990
-990
-991
-991
-991
-991
-989
-985
-980
-978
-978
-979
-980
-981
-981
-980
-979
-980
-981
-982
-982
-981
-978
-975
-974
-973
-971
-970
-971
-974
-977
-978
-979
-981
-981
-980
-978
-978
-979
-982
-985
-986
-986
-987
-987
-987
-987
-989
-990
-990
-990
-991
-993
-993
-994
-993
-990
-990
-991
-992
-993
-993
-993
-993
-993
-992
-991
-990
-990
-992
-994
-995
-994
-995
-994
-992
-991
-991
-990
-990
-992
-991
-990
-989
-988
-986
-987
-990
-982
-964
-940
-911
-880
-847
-815
-790
-767
-776
-823
-867
-906
-937
-946
-946
-951
-959
-970
-987
-999
-1014
-1027
-1035
-1042
-1047
-1046
-1043
-1039
-1036
-1033
-1028
-1021
-1014
-1008
-1003
-997
-991
-987
-984
-983
-984
-985
-985
-984
-984
-982
-980
-978
-977
-976
-977
-978
-978
-979
-978
-977
-975
-973
-972
-971
-973
-974
-974
-975
-974
-972
-971
-969
-968
-968
-968
-969
-970
-969
-969
-968
-966
-964
-963
-962
-963
-964
-965
-965
-964
-962
-959
-958
-958
-957
-958
-958
-957
-957
-955
-954
-951
-949
-947
-946
-946
-945
-945
-944
-942
-937
-935
-932
-930
-929
-929
-929
-928
-926
-923
-920
-918
-915
-915
-915
-916
-916
-915
-914
-914
-912
-908
-908
-908
-909
-910
-913
-915
-917
-917
-916
-917
-918
-920
-923
-928
-931
-935
-937
-939
-940
-941
-943
-946
-950
-954
-957
-960
-962
-963
-962
-962
-963
-965
-968
-972
-974
-976
-977
-976
-974
-973
-972
-973
-975
-977
-978
-980
-980
-978
-976
-975
-974
-974
-976
-978
-978
-978
-978
-976
-974
-972
-972
-972
-974
-975
-975
-976
-976
-974
-972
-970
-969
-971
-973
-973
-975
-975
-976
-973
-971
-969
-969
-970
-972
-974
-975
-975
-975
-973
-972
-971
-971
-971
-974
-975
-976
-976
-976
-974
-973
-972
-972
-973
-975
-977
-978
-979
-978
-976
-973
-973
-973
-974
-976
-978
-979
-979
-979
-978
-975
-975
-975
-976
-977
-978
-979
-980
-980
-979
-977
-976
-976
-977
-978
-979
-980
-980
-979
-978
-976
-976
-976
-976
-977
-979
-980
-980
-979
-977
-976
-975
-975
-976
-978
-979
-980
-980
-980
-979
-977
-976
-976
-976
-978
-979
-980
-981
-979
-977
-976
-975
-976
-978
-978
-981
-981
-981
-979
-977
-975
-975
-976
-978
-979
-979
-981
-981
-980
-977
-975
-975
-976
-977
-978
-980
-981
-981
-978
-976
-976
-976
-976
-977
-979
-980
-980
-980
-978
-976
-975
-975
-976
-978
-979
-980
-980
-978
-975
-970
-965
-962
-962
-964
-966
-967
-968
-967
-965
-965
-964
-964
-964
-962
-961
-961
-961
-959
-957
-954
-955
-958
-960
-963
-964
-965
-967
-967
-966
-966
-966
-967
-970
-970
-971
-974
-975
-974
-973
-973
-973
-974
-975
-977
-978
-980
-980
-980
-978
-976
-975
-975
-976
-978
-979
-980
-981
-980
-977
-976
-974
-975
-977
-978
-980
-981
-980
-978
-977
-975
-974
-974
-974
-974
-974
-974
-974
-972
-971
-972
-962
-943
-916
-884
-851
-816
-781
-751
-726
-738
-791
-845
-890
-923
-934
-937
-942
-951
-967
-985
-999
-1014
-1026
-1032
-1035
-1036
-1035
-1032
-1029
-1023
-1014
-1006
-997
-991
-987
-982
-978
-975
-970
-967
-965
-966
-966
-967
-966
-966
-965
-964
-961
-959
-958
-958
-958
-959
-960
-960
-959
-958
-955
-953
-952
-952
-953
-954
-954
-955
-954
-951
-949
-948
-947
-947
-948
-950
-950
-951
-951
-948
-945
-943
-943
-942
-943
-944
-945
-945
-944
-941
-938
-937
-936
-935
-936
-936
-936
-936
-934
-930
-926
-924
-922
-921
-921
-921
-921
-919
-916
-912
-907
-905
-903
-902
-901
-901
-900
-898
-895
-892
-888
-885
-884
-883
-884
-884
-883
-883
-881
-878
-875
-874
-876
-877
-879
-882
-884
-886
-887
-887
-888
-890
-894
-898
-903
-907
-911
-915
-916
-917
-918
-920
-923
-928
-931
-936
-939
-942
-942
-941
-941
-943
-945
-947
-951
-954
-956
-957
-956
-955
-954
-954
-955
-957
-959
-962
-961
-961
-959
-957
-956
-955
-956
-957
-958
-960
-961
-961
-958
-956
-954
-953
-955
-956
-957
-959
-960
-959
-956
-954
-953
-952
-954
-956
-957
-958
-959
-959
-957
-954
-953
-953
-954
-956
-958
-959
-960
-959
-957
-955
-954
-954
-955
-957
-959
-961
-962
-961
-959
-956
-956
-956
-957
-959
-961
-962
-963
-962
-960
-958
-956
-957
-958
-960
-963
-965
-964
-963
-961
-958
-958
-959
-961
-963
-964
-966
-966
-965
-963
-960
-959
-960
-961
-963
-964
-966
-966
-965
-962
-961
-959
-960
-962
-964
-965
-966
-966
-965
-963
-960
-960
-961
-963
-964
-965
-966
-966
-965
-963
-961
-961
-962
-963
-965
-966
-967
-967
-965
-963
-962
-960
-961
-963
-964
-967
-968
-968
-966
-964
-962
-961
-962
-964
-965
-967
-968
-968
-966
-964
-962
-961
-962
-965
-966
-968
-969
-968
-967
-965
-962
-962
-963
-965
-967
-968
-969
-968
-965
-963
-960
-957
-956
-954
-954
-955
-956
-956
-954
-951
-949
-951
-953
-956
-957
-958
-955
-952
-948
-946
-943
-943
-945
-948
-952
-954
-954
-953
-952
-951
-950
-952
-955
-958
-962
-963
-963
-962
-961
-960
-958
-960
-963
-966
-968
-969
-970
-969
-967
-965
-964
-965
-966
-968
-970
-971
-972
-970
-968
-966
-965
-965
-966
-968
-970
-971
-971
-970
-967
-966
-964
-965
-966
-968
-969
-968
-967
-965
-962
-960
-960
-962
-962
-952
-932
-902
-868
-830
-791
-754
-726
-709
-740
-799
-854
-898
-923
-926
-927
-931
-942
-962
-982
-999
-1013
-1023
-1027
-1026
-1024
-1021
-1019
-1018
-1015
-1008
-1000
-992
-986
-979
-972
-966
-963
-962
-962
-963
-965
-964
-963
-961
-957
-955
-954
-954
-955
-957
-958
-958
-957
-955
-952
-950
-949
-949
-950
-952
-952
-953
-952
-950
-949
-946
-944
-944
-947
-948
-949
-950
-949
-947
-945
-942
-942
-943
-944
-945
-946
-946
-944
-942
-940
-938
-938
-938
-939
-939
-940
-939
-937
-935
-931
-929
-928
-928
-928
-929
-927
-926
-924
-920
-916
-913
-911
-910
-910
-910
-909
-907
-905
-901
-897
-894
-892
-892
-892
-892
-892
-891
-889
-886
-883
-881
-881
-883
-885
-886
-887
-888
-888
-888
-888
-889
-892
-896
-901
-905
-909
-913
-915
-916
-917
-919
-923
-928
-932
-936
-941
-943
-943
-944
-944
-945
-947
-951
-956
-959
-962
-963
-962
-961
-960
-959
-961
-964
-967
-968
-969
-970
-969
-966
-964
-964
-964
-966
-968
-970
-971
-970
-967
-965
-963
-963
-963
-964
-967
-968
-968
-968
-966
-964
-962
-962
-962
-964
-967
-968
-968
-968
-966
-963
-962
-961
-962
-964
-966
-967
-968
-967
-964
-962
-961
-961
-963
-965
-967
-969
-968
-967
-965
-964
-962
-963
-964
-966
-968
-970
-971
-970
-968
-966
-964
-964
-965
-967
-970
-971
-971
-971
-969
-967
-965
-965
-967
-970
-972
-973
-973
-972
-970
-968
-967
-967
-969
-971
-973
-974
-975
-974
-972
-970
-969
-970
-971
-972
-974
-976
-975
-974
-972
-969
-969
-970
-972
-973
-975
-976
-977
-976
-975
-973
-971
-971
-972
-974
-977
-978
-977
-976
-973
-971
-970
-971
-972
-974
-977
-979
-979
-977
-975
-973
-972
-973
-974
-975
-978
-978
-978
-977
-976
-974
-973
-974
-975
-976
-979
-979
-979
-978
-976
-974
-974
-974
-976
-978
-978
-978
-977
-973
-967
-962
-961
-962
-964
-966
-968
-969
-969
-968
-966
-964
-963
-960
-959
-961
-962
-962
-961
-960
-960
-960
-961
-962
-965
-968
-969
-970
-971
-970
-968
-969
-968
-968
-971
-973
-975
-978
-980
-979
-976
-975
-975
-976
-978
-981
-981
-982
-983
-980
-977
-976
-977
-979
-980
-982
-983
-983
-982
-980
-978
-977
-977
-978
-980
-981
-982
-982
-982
-980
-979
-977
-976
-975
-975
-977
-977
-979
-980
-971
-953
-927
-898
-868
-836
-805
-780
-760
-766
-812
-854
-889
-920
-931
-934
-940
-950
-962
-978
-988
-999
-1010
-1019
-1026
-1033
-1036
-1036
-1034
-1032
-1027
-1016
-1006
-998
-994
-991
-987
-984
-980
-977
-973
-971
-969
-970
-971
-971
-972
-972
-972
-969
-967
-965
-963
-963
-963
-964
-966
-967
-967
-965
-962
-959
-958
-958
-960
-962
-963
-963
-963
-960
-957
-956
-953
-954
-956
-957
-958
-958
-956
-955
-952
-951
-951
-951
-952
-952
-952
-952
-951
-949
-945
-945
-943
-944
-944
-945
-946
-945
-943
-940
-937
-935
-933
-932
-932
-932
-931
-930
-928
-925
-921
-918
-916
-915
-915
-915
-914
-912
-911
-909
-906
-903
-902
-902
-902
-903
-904
-905
-903
-901
-899
-899
-900
-902
-904
-908
-910
-912
-914
-914
-915
-917
-919
-923
-928
-932
-936
-939
-940
-941
-942
-944
-946
-948
-951
-955
-958
-959
-960
-962
-960
-961
-963
-965
-968
-969
-971
-971
-971
-970
-969
-968
-968
-970
-972
-973
-974
-973
-973
-972
-970
-968
-968
-968
-970
-972
-972
-972
-970
-969
-967
-965
-965
-967
-969
-970
-972
-971
-969
-967
-965
-964
-964
-966
-969
-970
-971
-970
-969
-967
-965
-964
-965
-967
-970
-971
-971
-970
-968
-967
-965
-965
-965
-968
-970
-971
-972
-972
-970
-969
-967
-967
-968
-969
-971
-972
-972
-972
-970
-968
-968
-968
-968
-971
-973
-974
-975
-974
-971
-969
-969
-968
-969
-970
-973
-974
-975
-974
-973
-971
-969
-969
-971
-972
-974
-975
-975
-975
-974
-972
-971
-970
-971
-972
-974
-975
-975
-974
-974
-972
-971
-970
-971
-972
-974
-975
-975
-975
-974
-972
-971
-971
-973
-973
-975
-976
-976
-976
-975
-973
-972
-972
-973
-975
-977
-978
-978
-976
-973
-972
-970
-972
-974
-975
-976
-978
-976
-973
-970
-965
-960
-959
-961
-963
-964
-966
-965
-964
-963
-962
-961
-962
-961
-961
-960
-960
-959
-957
-955
-954
-955
-957
-960
-962
-965
-966
-965
-964
-964
-964
-964
-967
-968
-970
-972
-973
-973
-973
-972
-972
-972
-973
-975
-977
-979
-979
-980
-978
-975
-973
-973
-974
-976
-979
-980
-981
-980
-977
-974
-973
-973
-974
-976
-979
-980
-981
-981
-978
-976
-974
-974
-974
-975
-975
-974
-974
-973
-972
-972
-967
-951
-928
-899
-867
-833
-797
-766
-739
-734
-778
-833
-879
-917
-934
-936
-940
-949
-960
-977
-991
-1004
-1019
-1029
-1034
-1034
-1036
-1034
-1030
-1024
-1017
-1008
-1000
-994
-990
-986
-982
-978
-973
-968
-966
-965
-966
-968
-969
-968
-968
-966
-963
-960
-958
-958
-959
-961
-962
-962
-962
-960
-957
-954
-953
-952
-953
-955
-957
-958
-957
-954
-951
-948
-947
-947
-948
-950
-951
-951
-950
-948
-945
-943
-942
-943
-943
-945
-947
-947
-946
-944
-940
-937
-936
-935
-937
-938
-939
-938
-936
-933
-930
-927
-924
-923
-924
-925
-924
-923
-920
-916
-911
-907
-905
-904
-904
-904
-904
-902
-900
-896
-892
-889
-887
-887
-887
-888
-888
-887
-886
-883
-880
-878
-879
-881
-884
-888
-889
-891
-892
-892
-893
-895
-897
-901
-906
-911
-916
-919
-921
-922
-923
-924
-927
-931
-936
-940
-943
-946
-946
-946
-946
-947
-948
-951
-954
-957
-960
-961
-961
-959
-957
-956
-956
-958
-961
-962
-964
-964
-963
-962
-959
-957
-958
-960
-962
-964
-965
-965
-963
-960
-957
-956
-957
-959
-960
-962
-963
-962
-961
-958
-955
-954
-955
-957
-958
-960
-961
-962
-960
-957
-955
-954
-955
-957
-959
-961
-962
-961
-960
-958
-956
-955
-956
-959
-961
-962
-963
-964
-961
-959
-957
-956
-957
-959
-962
-963
-964
-965
-963
-961
-959
-959
-959
-961
-963
-965
-967
-966
-963
-960
-960
-959
-960
-962
-965
-967
-967
-967
-965
-963
-961
-960
-962
-964
-965
-967
-968
-967
-965
-962
-959
-960
-962
-964
-966
-967
-967
-966
-964
-961
-960
-960
-962
-964
-966
-968
-968
-968
-965
-963
-961
-961
-963
-965
-967
-967
-968
-968
-966
-963
-961
-962
-963
-965
-967
-969
-969
-968
-964
-962
-961
-962
-964
-966
-967
-969
-969
-967
-964
-961
-959
-959
-959
-958
-957
-956
-955
-954
-953
-950
-948
-949
-952
-956
-958
-959
-958
-953
-948
-944
-943
-942
-943
-947
-950
-953
-954
-952
-951
-950
-949
-951
-955
-959
-961
-964
-963
-960
-958
-957
-957
-958
-962
-966
-968
-969
-969
-967
-965
-963
-963
-963
-965
-967
-969
-970
-970
-969
-966
-964
-964
-965
-967
-969
-970
-970
-970
-969
-966
-963
-963
-964
-966
-968
-969
-970
-968
-964
-960
-958
-957
-958
-963
-965
-953
-929
-897
-861
-822
-783
-748
-722
-709
-746
-806
-858
-900
-920
-923
-924
-931
-945
-968
-988
-1003
-1016
-1024
-1024
-1022
-1021
-1020
-1020
-1019
-1015
-1008
-998
-989
-980
-972
-966
-963
-962
-963
-962
-962
-962
-961
-958
-956
-954
-953
-954
-954
-955
-956
-955
-953
-951
-949
-947
-946
-947
-949
-950
-951
-950
-949
-948
-944
-942
-943
-944
-947
-949
-947
-946
-944
-942
-942
-940
-941
-940
-941
-942
-943
-942
-940
-937
-935
-933
-932
-934
-936
-936
-936
-935
-933
-930
-928
-926
-924
-924
-925
-924
-923
-923
-920
-917
-912
-909
-907
-906
-907
-906
-905
-903
-899
-895
-892
-890
-889
-887
-887
-888
-887
-885
-883
-880
-878
-876
-875
-877
-878
-880
-880
-880
-880
-880
-881
-882
-885
-890
-894
-899
-903
-906
-908
-910
-912
-915
-919
-923
-928
-932
-936
-938
-938
-939
-940
-943
-946
-949
-953
-956
-958
-959
-959
-959
-958
-959
-961
-963
-965
-966
-968
-968
-967
-964
-963
-963
-963
-964
-966
-967
-969
-969
-968
-966
-965
-965
-966
-967
-967
-968
-969
-968
-967
-965
-964
-964
-964
-966
-967
-969
-969
-968
-966
-964
-963
-964
-964
-966
-967
-967
-968
-967
-966
-964
-964
-964
-965
-967
-969
-971
-971
-969
-968
-966
-965
-966
-967
-969
-972
-972
-972
-971
-969
-968
-968
-968
-970
-972
-973
-974
-974
-974
-972
-970
-969
-970
-971
-973
-975
-976
-976
-975
-974
-973
-971
-972
-974
-976
-977
-978
-977
-977
-975
-974
-974
-974
-976
-978
-978
-979
-979
-977
-976
-974
-974
-975
-977
-978
-979
-980
-980
-979
-977
-976
-975
-975
-977
-978
-980
-981
-981
-980
-978
-976
-975
-976
-978
-980
-981
-982
-981
-980
-978
-978
-978
-977
-979
-981
-982
-982
-982
-981
-980
-978
-978
-980
-981
-982
-982
-983
-983
-982
-980
-978
-978
-978
-978
-979
-977
-975
-972
-970
-968
-966
-967
-969
-971
-973
-975
-976
-975
-972
-968
-963
-962
-962
-963
-964
-965
-967
-969
-968
-966
-966
-968
-969
-971
-974
-977
-980
-981
-978
-975
-975
-975
-976
-980
-984
-986
-986
-985
-984
-982
-982
-981
-982
-985
-987
-988
-988
-987
-985
-983
-983
-983
-985
-986
-987
-988
-988
-987
-986
-985
-983
-984
-985
-987
-988
-989
-988
-987
-984
-981
-979
-979
-979
-980
-984
-986
-976
-955
-926
-893
-858
-824
-796
-775
-760
-785
-838
-880
-914
-937
-940
-942
-950
-961
-978
-995
-1007
-1019
-1028
-1032
-1035
-1038
-1040
-1040
-1040
-1039
-1032
-1021
-1011
-1003
-996
-992
-989
-988
-987
-986
-983
-981
-979
-977
-976
-976
-977
-978
-978
-979
-979
-976
-973
-971
-970
-970
-971
-972
-973
-974
-974
-971
-969
-967
-966
-965
-966
-967
-968
-968
-967
-966
-964
-962
-962
-962
-963
-964
-965
-965
-965
-963
-960
-959
-958
-959
-960
-961
-960
-959
-957
-955
-952
-950
-949
-949
-950
-951
-951
-951
-948
-944
-941
-937
-936
-936
-936
-937
-936
-934
-930
-926
-922
-920
-919
-919
-919
-919
-919
-916
-913
-912
-908
-907
-907
-907
-908
-910
-909
-909
-908
-907
-906
-906
-908
-911
-914
-918
-923
-925
-927
-927
-928
-930
-933
-937
-941
-946
-949
-951
-952
-954
-954
-955
-958
-962
-966
-968
-970
-972
-973
-972
-971
-972
-973
-976
-978
-979
-981
-980
-979
-977
-976
-976
-978
-980
-982
-983
-983
-982
-979
-978
-977
-976
-978
-979
-981
-981
-980
-979
-978
-976
-975
-975
-976
-978
-979
-980
-979
-980
-978
-976
-975
-974
-974
-976
-977
-980
-980
-978
-976
-975
-973
-973
-974
-977
-979
-979
-980
-979
-977
-975
-973
-974
-976
-978
-980
-981
-981
-981
-979
-977
-975
-974
-976
-978
-980
-982
-982
-981
-979
-978
-978
-978
-980
-980
-981
-982
-982
-981
-979
-978
-977
-977
-979
-981
-982
-983
-984
-983
-982
-980
-979
-979
-980
-981
-983
-985
-984
-983
-981
-980
-979
-980
-981
-983
-985
-986
-985
-983
-982
-980
-979
-979
-981
-983
-985
-986
-986
-985
-982
-981
-980
-981
-982
-984
-984
-985
-985
-984
-983
-981
-981
-982
-984
-985
-987
-987
-986
-984
-983
-982
-982
-983
-984
-986
-986
-986
-986
-986
-984
-982
-983
-983
-984
-986
-987
-987
-985
-981
-975
-970
-970
-971
-972
-975
-975
-971
-973
-976
-974
-972
-972
-971
-968
-968
-969
-969
-967
-967
-967
-967
-968
-970
-971
-975
-977
-977
-978
-976
-976
-977
-977
-977
-980
-982
-983
-984
-984
-984
-983
-983
-984
-986
-987
-989
-990
-990
-989
-987
-985
-985
-985
-987
-989
-990
-991
-991
-990
-988
-986
-986
-986
-988
-990
-990
-991
-991
-990
-988
-986
-984
-985
-985
-984
-985
-986
-985
-984
-985
-976
-959
-933
-903
-873
-841
-809
-783
-758
-763
-812
-859
-897
-930
-942
-946
-951
-960
-972
-988
-1000
-1013
-1025
-1033
-1039
-1044
-1045
-1043
-1041
-1036
-1029
-1020
-1011
-1004
-1001
-996
-992
-990
-986
-981
-978
-977
-977
-977
-978
-979
-979
-977
-975
-973
-972
-970
-970
-971
-972
-973
-973
-972
-971
-968
-966
-964
-965
-966
-968
-969
-968
-968
-966
-963
-961
-961
-961
-961
-963
-964
-964
-962
-960
-958
-956
-956
-956
-957
-958
-958
-958
-956
-955
-952
-949
-948
-949
-950
-951
-950
-949
-947
-944
-941
-937
-936
-936
-936
-937
-937
-936
-932
-929
-925
-921
-919
-917
-918
-918
-917
-914
-910
-908
-905
-902
-901
-901
-902
-902
-903
-903
-901
-899
-896
-896
-897
-899
-900
-904
-906
-907
-908
-909
-910
-911
-915
-919
-923
-928
-932
-934
-935
-936
-937
-940
-942
-946
-951
-954
-957
-959
-959
-960
-959
-960
-962
-965
-967
-970
-970
-971
-970
-969
-968
-968
-969
-971
-972
-973
-974
-975
-973
-971
-970
-970
-970
-972
-973
-974
-975
-974
-973
-970
-968
-968
-968
-970
-972
-973
-973
-972
-970
-968
-966
-966
-968
-970
-971
-972
-971
-971
-970
-968
-967
-967
-968
-969
-971
-973
-973
-972
-971
-969
-967
-967
-968
-970
-972
-974
-974
-973
-972
-970
-969
-970
-971
-973
-974
-975
-976
-975
-973
-972
-971
-972
-973
-975
-977
-978
-978
-978
-976
-974
-973
-973
-974
-976
-978
-980
-980
-978
-976
-975
-974
-974
-975
-977
-979
-980
-980
-979
-977
-976
-974
-975
-976
-977
-979
-980
-980
-979
-977
-975
-974
-974
-976
-978
-979
-981
-980
-979
-978
-976
-974
-975
-978
-980
-980
-981
-981
-980
-977
-976
-975
-975
-977
-979
-981
-982
-981
-980
-978
-976
-975
-976
-978
-980
-982
-983
-981
-981
-979
-977
-976
-977
-979
-981
-983
-982
-982
-981
-979
-976
-976
-977
-980
-982
-982
-982
-981
-978
-976
-974
-971
-969
-967
-968
-969
-970
-970
-968
-966
-964
-966
-968
-970
-971
-968
-966
-964
-961
-958
-956
-956
-958
-963
-967
-968
-968
-969
-968
-966
-966
-968
-970
-973
-976
-976
-976
-975
-974
-974
-974
-976
-978
-980
-982
-983
-983
-982
-980
-979
-978
-978
-979
-981
-984
-984
-984
-983
-982
-979
-978
-979
-981
-982
-983
-984
-984
-983
-981
-979
-978
-978
-980
-981
-981
-981
-979
-976
-975
-973
-973
-976
-970
-953
-927
-893
-858
-819
-780
-749
-725
-734
-790
-848
-896
-929
-939
-940
-943
-952
-970
-989
-1005
-1021
-1033
-1039
-1040
-1038
-1036
-1033
-1030
-1027
-1021
-1012
-1005
-999
-992
-985
-979
-974
-972
-971
-970
-972
-972
-972
-971
-969
-967
-964
-962
-962
-964
-964
-965
-965
-964
-962
-958
-957
-956
-956
-958
-959
-958
-959
-958
-956
-953
-951
-950
-951
-951
-953
-954
-955
-953
-951
-949
-946
-946
-946
-948
-950
-950
-948
-946
-944
-942
-940
-939
-939
-941
-941
-941
-940
-937
-934
-932
-929
-928
-927
-928
-927
-926
-925
-922
-918
-914
-911
-909
-907
-907
-907
-905
-903
-900
-897
-893
-890
-888
-887
-888
-888
-887
-885
-882
-880
-877
-875
-876
-876
-878
-879
-881
-882
-883
-882
-882
-883
-886
-890
-895
-899
-904
-907
-908
-910
-911
-913
-917
-920
-926
-931
-934
-936
-937
-938
-939
-939
-941
-946
-949
-951
-953
-954
-955
-953
-953
-953
-953
-956
-958
-960
-961
-961
-959
-958
-956
-956
-956
-958
-961
-962
-962
-962
-959
-957
-955
-955
-956
-957
-959
-960
-960
-960
-958
-956
-954
-955
-955
-956
-959
-960
-961
-959
-958
-957
-954
-955
-956
-957
-959
-961
-961
-961
-959
-958
-957
-957
-958
-960
-961
-962
-963
-963
-960
-958
-958
-958
-958
-961
-963
-964
-964
-964
-962
-960
-959
-960
-961
-963
-965
-967
-967
-966
-964
-963
-961
-961
-962
-964
-967
-968
-968
-967
-965
-965
-963
-963
-965
-967
-969
-969
-970
-969
-966
-964
-963
-964
-966
-967
-969
-970
-970
-969
-967
-965
-964
-965
-966
-967
-969
-970
-969
-968
-968
-966
-965
-965
-967
-970
-970
-971
-971
-970
-968
-968
-967
-968
-969
-971
-973
-973
-973
-971
-969
-968
-967
-968
-970
-972
-973
-973
-973
-972
-970
-968
-968
-969
-971
-973
-975
-976
-975
-973
-971
-969
-969
-969
-970
-971
-971
-970
-967
-962
-958
-957
-957
-958
-961
-962
-963
-966
-967
-966
-962
-958
-955
-954
-955
-957
-958
-958
-957
-958
-957
-957
-957
-959
-961
-963
-965
-968
-969
-968
-968
-966
-966
-967
-970
-973
-975
-977
-978
-977
-975
-973
-973
-974
-976
-978
-980
-981
-980
-978
-976
-975
-975
-977
-978
-980
-982
-981
-980
-979
-977
-976
-976
-978
-980
-981
-982
-982
-981
-979
-978
-975
-974
-973
-975
-976
-978
-981
-976
-959
-933
-900
-867
-833
-798
-770
-747
-744
-789
-843
-886
-920
-935
-937
-940
-951
-964
-984
-999
-1011
-1021
-1028
-1032
-1036
-1039
-1040
-1037
-1035
-1029
-1019
-1008
-1000
-994
-990
-987
-985
-982
-980
-977
-975
-973
-971
-972
-973
-974
-975
-975
-974
-972
-969
-967
-966
-966
-968
-969
-970
-971
-969
-967
-964
-961
-961
-960
-962
-964
-965
-965
-965
-964
-961
-959
-959
-960
-961
-962
-964
-963
-961
-958
-956
-955
-955
-955
-956
-957
-958
-958
-957
-954
-951
-949
-948
-949
-951
-952
-951
-950
-947
-944
-940
-937
-935
-936
-937
-937
-936
-934
-931
-927
-922
-919
-918
-917
-918
-917
-916
-915
-913
-910
-906
-903
-902
-903
-903
-904
-905
-905
-903
-902
-900
-899
-900
-903
-906
-910
-913
-915
-916
-917
-918
-920
-924
-928
-933
-937
-941
-944
-945
-948
-949
-951
-954
-957
-961
-965
-967
-968
-969
-969
-969
-970
-971
-974
-977
-980
-981
-982
-981
-978
-977
-978
-979
-980
-983
-984
-984
-984
-982
-980
-978
-978
-978
-979
-981
-982
-983
-983
-980
-978
-977
-977
-978
-980
-981
-982
-982
-982
-980
-977
-975
-975
-977
-978
-981
-982
-982
-981
-980
-977
-976
-977
-978
-980
-982
-983
-983
-983
-981
-979
-978
-977
-978
-980
-982
-984
-984
-984
-983
-981
-981
-980
-982
-984
-985
-985
-986
-985
-984
-982
-981
-981
-982
-985
-987
-989
-990
-989
-987
-985
-984
-985
-986
-988
-990
-991
-991
-990
-988
-986
-985
-985
-988
-990
-991
-993
-993
-991
-988
-987
-987
-987
-989
-991
-992
-993
-993
-992
-991
-988
-987
-988
-989
-992
-994
-995
-994
-992
-991
-989
-988
-988
-991
-994
-995
-995
-995
-994
-992
-990
-990
-990
-992
-994
-995
-996
-995
-994
-992
-991
-991
-992
-994
-995
-996
-997
-996
-993
-989
-985
-981
-979
-981
-984
-985
-987
-987
-984
-982
-982
-983
-984
-985
-984
-982
-982
-981
-977
-974
-974
-976
-979
-982
-985
-986
-987
-986
-986
-985
-985
-986
-989
-991
-991
-992
-993
-994
-995
-995
-994
-994
-996
-998
-1000
-1002
-1002
-1001
-1001
-998
-997
-997
-998
-1001
-1002
-1003
-1003
-1002
-1001
-999
-997
-997
-998
-1000
-1001
-1002
-1004
-1003
-1001
-1000
-998
-997
-998
-1000
-1000
-999
-999
-997
-995
-995
-992
-981
-961
-934
-905
-873
-839
-812
-789
-778
-813
-862
-900
-935
-955
-956
-959
-966
-974
-988
-1001
-1014
-1028
-1039
-1047
-1054
-1056
-1055
-1051
-1047
-1045
-1040
-1032
-1025
-1020
-1017
-1011
-1005
-1001
-998
-994
-993
-993
-995
-996
-996
-995
-993
-990
-988
-986
-987
-989
-989
-989
-990
-990
-988
-986
-983
-983
-982
-984
-985
-986
-987
-986
-983
-981
-979
-978
-979
-980
-981
-983
-983
-982
-980
-977
-976
-974
-975
-975
-977
-979
-979
-978
-975
-972
-970
-968
-969
-970
-970
-971
-970
-969
-965
-961
-960
-958
-958
-959
-959
-959
-957
-954
-950
-947
-943
-941
-941
-941
-941
-940
-940
-938
-934
-930
-928
-927
-927
-928
-929
-929
-928
-926
-924
-921
-920
-921
-922
-924
-926
-928
-930
-931
-932
-932
-932
-935
-939
-943
-948
-952
-954
-955
-955
-956
-958
-961
-964
-968
-972
-975
-977
-978
-978
-978
-978
-980
-983
-986
-988
-990
-991
-990
-988
-987
-987
-987
-989
-991
-993
-994
-994
-993
-991
-989
-988
-989
-990
-992
-994
-994
-993
-991
-989
-986
-986
-987
-987
-989
-990
-991
-991
-990
-988
-986
-985
-985
-986
-989
-990
-990
-990
-988
-986
-984
-984
-985
-987
-989
-989
-990
-990
-988
-986
-984
-983
-984
-986
-988
-990
-990
-990
-989
-987
-986
-985
-986
-987
-989
-991
-992
-991
-990
-988
-987
-987
-987
-989
-991
-992
-993
-993
-991
-989
-988
-988
-989
-991
-992
-993
-994
-993
-992
-989
-988
-989
-990
-991
-992
-993
-993
-993
-991
-989
-987
-988
-990
-991
-993
-994
-994
-993
-991
-989
-989
-988
-989
-991
-993
-994
-994
-993
-991
-989
-989
-989
-990
-992
-994
-994
-993
-992
-989
-985
-980
-977
-975
-978
-980
-981
-982
-980
-977
-977
-978
-980
-982
-983
-981
-978
-976
-974
-971
-968
-969
-971
-975
-978
-980
-981
-982
-981
-979
-979
-980
-982
-985
-987
-987
-988
-989
-988
-988
-988
-989
-990
-992
-994
-995
-996
-995
-994
-993
-991
-990
-991
-992
-994
-995
-997
-996
-996
-994
-992
-992
-993
-993
-995
-996
-997
-996
-995
-992
-991
-991
-991
-992
-992
-993
-992
-989
-987
-985
-987
-986
-974
-953
-925
-894
-860
-824
-791
-764
-749
-783
-841
-889
-929
-950
-954
-955
-960
-970
-988
-1005
-1019
-1033
-1044
-1049
-1051
-1050
-1048
-1045
-1042
-1037
-1029
-1021
-1014
-1009
-1003
-997
-992
-988
-985
-983
-983
-984
-985
-985
-985
-983
-979
-977
-976
-975
-975
-976
-978
-979
-979
-977
-974
-972
-971
-970
-971
-973
-974
-975
-973
-972
-969
-967
-965
-965
-965
-966
-968
-968
-967
-966
-964
-961
-960
-960
-960
-961
-962
-962
-961
-959
-956
-954
-953
-953
-953
-953
-953
-953
-953
-950
-947
-944
-942
-940
-940
-940
-939
-939
-936
-933
-929
-926
-923
-921
-921
-921
-920
-919
-917
-913
-910
-907
-904
-903
-904
-905
-905
-904
-902
-900
-898
-896
-896
-896
-898
-901
-903
-905
-907
-907
-906
-908
-910
-914
-919
-924
-928
-931
-933
-935
-937
-938
-940
-943
-947
-953
-957
-959
-961
-961
-961
-962
-963
-965
-969
-972
-974
-975
-975
-975
-973
-973
-973
-975
-976
-978
-979
-979
-978
-977
-976
-974
-974
-975
-977
-978
-979
-978
-976
-975
-973
-972
-971
-972
-974
-974
-975
-976
-974
-972
-970
-969
-968
-970
-971
-973
-974
-975
-973
-971
-970
-969
-969
-970
-972
-973
-975
-974
-973
-971
-969
-969
-969
-971
-973
-974
-975
-974
-974
-973
-972
-971
-970
-972
-974
-976
-977
-977
-976
-975
-973
-973
-973
-974
-977
-977
-978
-978
-977
-975
-973
-974
-975
-976
-977
-978
-979
-979
-978
-977
-977
-976
-976
-978
-981
-981
-982
-981
-980
-979
-977
-976
-976
-978
-980
-982
-981
-981
-979
-977
-977
-975
-977
-978
-979
-981
-981
-981
-978
-976
-975
-974
-975
-977
-979
-980
-979
-978
-975
-973
-969
-965
-962
-962
-963
-965
-966
-966
-963
-961
-961
-962
-966
-968
-969
-968
-965
-960
-959
-956
-953
-954
-957
-960
-963
-965
-965
-965
-965
-965
-964
-964
-967
-970
-972
-972
-973
-973
-973
-973
-974
-974
-975
-977
-980
-981
-980
-979
-978
-977
-976
-976
-977
-979
-979
-980
-980
-979
-978
-977
-977
-978
-979
-979
-980
-981
-980
-980
-978
-976
-975
-976
-977
-978
-979
-978
-975
-973
-971
-969
-971
-972
-961
-941
-912
-880
-845
-807
-772
-745
-727
-757
-815
-867
-909
-932
-936
-936
-941
-952
-971
-990
-1006
-1021
-1031
-1034
-1034
-1034
-1031
-1028
-1026
-1022
-1013
-1005
-998
-992
-985
-980
-975
-971
-968
-968
-968
-969
-969
-969
-968
-965
-962
-961
-960
-959
-961
-961
-961
