-885
-885
-882
-883
-886
-891
-898
-900
-900
-900
-899
-899
-898
-898
-901
-907
-910
-912
-914
-914
-911
-908
-905
-907
-908
-911
-915
-917
-917
-917
-915
-912
-908
-907
-909
-911
-914
-917
-917
-916
-914
-912
-910
-909
-910
-911
-912
-915
-915
-916
-915
-914
-912
-903
-883
-855
-823
-789
-754
-717
-687
-664
-676
-733
-794
-840
-874
-884
-883
-887
-893
-904
-920
-934
-948
-961
-970
-976
-978
-974
-968
-961
-954
-945
-938
-930
-924
-921
-918
-916
-909
-903
-898
-898
-899
-900
-902
-904
-902
-900
-897
-896
-893
-891
-892
-892
-897
-899
-897
-895
-894
-888
-887
-887
-888
-891
-892
-893
-894
-892
-887
-885
-884
-882
-883
-887
-888
-889
-888
-885
-881
-880
-878
-878
-879
-880
-881
-882
-881
-879
-875
-871
-869
-869
-873
-873
-873
-871
-868
-867
-864
-860
-857
-856
-857
-858
-858
-857
-855
-851
-846
-842
-839
-839
-841
-844
-845
-845
-843
-838
-833
-828
-824
-825
-825
-828
-830
-830
-832
-830
-827
-827
-825
-829
-832
-837
-842
-843
-843
-843
-844
-844
-847
-848
-853
-860
-864
-867
-868
-870
-870
-870
-871
-873
-878
-884
-889
-893
-894
-893
-890
-886
-884
-887
-889
-892
-895
-898
-898
-895
-891
-890
-891
-893
-898
-902
-902
-901
-898
-897
-894
-894
-893
-893
-895
-899
-900
-900
-900
-897
-895
-893
-895
-898
-901
-904
-905
-905
-904
-902
-898
-897
-895
-894
-897
-899
-901
-906
-906
-905
-904
-900
-898
-898
-899
-905
-909
-908
-908
-907
-904
-902
-902
-903
-905
-907
-910
-910
-911
-909
-906
-903
-904
-905
-908
-911
-914
-915
-914
-911
-907
-907
-907
-909
-912
-913
-913
-913
-912
-910
-907
-907
-908
-910
-915
-919
-917
-916
-914
-912
-913
-909
-909
-909
-914
-916
-917
-917
-916
-914
-910
-909
-909
-911
-916
-917
-918
-917
-916
-915
-913
-912
-913
-916
-920
-922
-921
-919
-917
-914
-912
-911
-910
-910
-912
-916
-918
-918
-917
-915
-914
-913
-913
-915
-919
-921
-920
-916
-914
-913
-908
-903
-901
-901
-902
-904
-906
-906
-903
-902
-901
-902
-902
-908
-910
-906
-903
-899
-895
-891
-890
-892
-895
-900
-903
-906
-907
-906
-903
-901
-900
-905
-908
-910
-912
-914
-915
-915
-915
-915
-915
-914
-916
-918
-921
-923
-925
-924
-922
-917
-915
-915
-917
-920
-922
-924
-924
-925
-924
-919
-919
-918
-918
-919
-920
-922
-923
-921
-919
-917
-914
-915
-913
-915
-917
-918
-916
-919
-920
-910
-889
-863
-832
-800
-767
-738
-714
-695
-707
-760
-809
-847
-879
-890
-889
-892
-899
-912
-927
-938
-947
-956
-963
-972
-976
-977
-976
-972
-967
-962
-956
-948
-940
-935
-930
-927
-925
-920
-915
-912
-909
-911
-913
-913
-914
-915
-915
-912
-909
-905
-904
-904
-904
-905
-908
-911
-910
-907
-903
-900
-897
-899
-901
-903
-904
-905
-903
-899
-895
-893
-893
-894
-894
-897
-898
-898
-897
-896
-892
-890
-887
-886
-889
-891
-892
-891
-890
-890
-888
-885
-882
-881
-880
-880
-880
-882
-882
-878
-874
-870
-866
-866
-867
-867
-867
-867
-867
-865
-858
-853
-850
-849
-851
-852
-854
-854
-851
-849
-846
-844
-843
-843
-844
-846
-846
-850
-851
-851
-848
-847
-848
-850
-852
-857
-860
-862
-865
-864
-864
-864
-866
-870
-876
-884
-888
-890
-889
-887
-885
-885
-889
-895
-899
-901
-904
-904
-905
-903
-901
-901
-902
-905
-907
-909
-914
-915
-915
-914
-911
-908
-908
-909
-912
-913
-913
-914
-914
-911
-908
-907
-905
-907
-911
-914
-916
-916
-916
-914
-909
-906
-906
-906
-909
-913
-914
-913
-912
-910
-908
-907
-906
-909
-910
-911
-913
-916
-914
-913
-911
-909
-908
-910
-913
-915
-916
-916
-914
-911
-908
-907
-906
-908
-912
-916
-918
-919
-918
-916
-914
-911
-910
-913
-916
-918
-920
-920
-919
-916
-913
-913
-913
-916
-919
-921
-922
-922
-921
-919
-916
-916
-915
-915
-918
-922
-924
-923
-924
-921
-918
-915
-917
-918
-920
-921
-923
-921
-920
-919
-916
-916
-917
-918
-921
-924
-924
-922
-919
-918
-916
-915
-916
-919
-922
-923
-924
-924
-923
-920
-918
-916
-916
-918
-920
-922
-923
-923
-921
-920
-918
-918
-919
-921
-922
-923
-922
-923
-922
-919
-916
-914
-913
-912
-913
-912
-911
-912
-910
-908
-905
-902
-905
-911
-917
-919
-917
-911
-905
-901
-896
-896
-897
-900
-906
-911
-912
-911
-906
-904
-904
-903
-905
-910
-916
-920
-921
-916
-914
-912
-910
-912
-917
-921
-924
-927
-928
-927
-923
-919
-918
-920
-923
-924
-926
-927
-926
-925
-923
-920
-919
-921
-922
-924
-926
-927
-926
-924
-922
-919
-920
-921
-921
-922
-924
-923
-921
-918
-914
-911
-912
-912
-903
-886
-860
-832
-801
-768
-738
-715
-699
-726
-778
-824
-863
-889
-892
-889
-891
-897
-909
-923
-937
-952
-964
-969
-976
-977
-974
-969
-966
-966
-965
-960
-954
-946
-938
-929
-922
-915
-913
-913
-914
-916
-917
-916
-916
-915
-911
-907
-906
-906
-908
-910
-910
-910
-909
-908
-904
-902
-900
-902
-904
-904
-905
-906
-905
-903
-900
-899
-898
-897
-900
-901
-903
-903
-901
-898
-894
-893
-891
-892
-895
-897
-894
-894
-894
-891
-886
-885
-885
-884
-885
-886
-886
-886
-884
-880
-875
-872
-871
-870
-872
-873
-873
-872
-869
-865
-861
-859
-856
-855
-855
-856
-857
-856
-854
-850
-846
-844
-844
-845
-846
-849
-850
-849
-848
-848
-845
-843
-843
-845
-849
-853
-856
-859
-860
-859
-859
-859
-860
-865
-869
-873
-876
-878
-879
-880
-880
-880
-882
-885
-889
-895
-898
-900
-900
-898
-897
-898
-898
-902
-906
-909
-910
-911
-910
-907
-904
-904
-905
-908
-909
-912
-914
-914
-910
-908
-905
-905
-905
-905
-909
-911
-911
-910
-911
-908
-905
-904
-903
-906
-910
-912
-913
-913
-909
-907
-905
-903
-903
-906
-909
-910
-913
-913
-912
-910
-905
-902
-905
-908
-911
-913
-913
-914
-913
-909
-909
-908
-910
-913
-917
-917
-915
-914
-912
-910
-907
-908
-910
-911
-915
-918
-919
-919
-919
-915
-913
-913
-913
-914
-916
-919
-920
-919
-916
-914
-913
-913
-914
-916
-918
-919
-918
-918
-919
-921
-917
-914
-916
-919
-920
-922
-922
-920
-918
-916
-914
-914
-914
-917
-920
-920
-921
-920
-919
-916
-914
-914
-915
-919
-922
-923
-922
-922
-918
-916
-914
-914
-916
-919
-922
-922
-922
-921
-919
-917
-915
-915
-916
-918
-920
-922
-919
-918
-917
-915
-908
-905
-904
-904
-906
-906
-909
-909
-905
-902
-901
-902
-905
-907
-909
-908
-905
-901
-900
-897
-895
-894
-898
-902
-906
-908
-906
-906
-904
-902
-903
-906
-911
-914
-916
-916
-916
-915
-913
-912
-913
-915
-915
-919
-921
-920
-920
-919
-920
-918
-916
-917
-919
-922
-923
-923
-923
-924
-921
-918
-917
-918
-919
-921
-923
-925
-923
-922
-920
-916
-915
-916
-918
-920
-920
-919
-918
-914
-914
-914
-905
-886
-860
-829
-796
-764
-729
-700
-678
-687
-740
-793
-839
-874
-887
-889
-892
-900
-914
-931
-947
-962
-973
-977
-978
-980
-979
-975
-970
-965
-957
-949
-942
-936
-932
-927
-923
-918
-914
-909
-907
-907
-909
-911
-911
-911
-909
-906
-906
-904
-902
-903
-903
-902
-903
-906
-904
-903
-899
-897
-896
-896
-899
-901
-900
-898
-896
-895
-891
-889
-890
-891
-892
-893
-893
-895
-893
-889
-887
-885
-886
-886
-887
-888
-889
-888
-885
-880
-876
-874
-874
-874
-875
-877
-876
-876
-873
-869
-864
-860
-859
-857
-857
-860
-861
-860
-856
-851
-843
-841
-840
-839
-839
-840
-841
-841
-838
-834
-830
-827
-826
-828
-832
-834
-836
-835
-832
-830
-827
-827
-829
-833
-838
-843
-845
-846
-848
-848
-848
-850
-854
-859
-862
-867
-871
-872
-876
-876
-876
-878
-882
-885
-889
-891
-894
-895
-895
-894
-893
-893
-896
-900
-904
-906
-906
-906
-904
-902
-900
-899
-900
-901
-906
-908
-909
-908
-904
-902
-901
-898
-899
-903
-907
-908
-908
-909
-905
-901
-898
-898
-900
-902
-904
-908
-908
-904
-902
-899
-896
-896
-898
-900
-902
-905
-906
-906
-903
-901
-901
-901
-902
-903
-905
-905
-907
-909
-909
-906
-904
-903
-904
-907
-909
-911
-912
-911
-908
-906
-903
-903
-905
-907
-910
-913
-915
-915
-912
-905
-902
-902
-903
-907
-911
-913
-914
-913
-910
-908
-908
-908
-910
-913
-915
-917
-918
-916
-913
-909
-908
-909
-909
-912
-914
-916
-917
-917
-914
-911
-909
-910
-911
-913
-915
-915
-915
-913
-911
-909
-907
-909
-911
-914
-917
-917
-915
-915
-913
-910
-908
-908
-910
-913
-915
-917
-916
-913
-910
-909
-908
-908
-911
-914
-915
-915
-916
-914
-912
-910
-910
-909
-910
-914
-915
-916
-914
-912
-908
-903
-901
-897
-895
-897
-901
-903
-903
-902
-898
-896
-895
-895
-899
-899
-898
-898
-897
-894
-890
-888
-890
-892
-895
-898
-899
-901
-900
-899
-899
-898
-901
-905
-906
-907
-910
-910
-911
-909
-909
-908
-907
-909
-911
-914
-916
-916
-916
-914
-914
-912
-911
-911
-913
-914
-916
-919
-920
-916
-911
-910
-912
-913
-914
-917
-918
-917
-916
-915
-912
-911
-910
-908
-909
-909
-910
-909
-908
-909
-899
-877
-849
-817
-786
-752
-719
-691
-668
-675
-729
-784
-828
-863
-876
-880
-886
-896
-913
-931
-945
-958
-968
-972
-975
-977
-975
-971
-967
-961
-951
-941
-933
-927
-923
-920
-919
-917
-913
-908
-903
-901
-900
-901
-905
-905
-905
-904
-900
-897
-894
-893
-893
-893
-894
-896
-898
-897
-896
-893
-890
-888
-888
-891
-892
-893
-895
-894
-892
-890
-888
-885
-884
-886
-888
-888
-888
-888
-885
-881
-880
-879
-879
-880
-881
-882
-882
-881
-879
-875
-870
-867
-867
-868
-869
-870
-869
-867
-864
-861
-856
-853
-851
-850
-851
-851
-850
-849
-846
-842
-839
-835
-833
-835
-835
-835
-836
-834
-832
-827
-823
-822
-822
-824
-828
-830
-829
-828
-825
-823
-821
-823
-826
-831
-837
-842
-844
-845
-846
-846
-847
-850
-854
-860
-864
-869
-872
-874
-875
-876
-874
-876
-878
-884
-887
-889
-893
-894
-894
-892
-891
-893
-896
-899
-903
-904
-904
-901
-900
-899
-898
-899
-901
-901
-903
-905
-906
-906
-905
-903
-901
-900
-899
-902
-905
-905
-905
-903
-900
-898
-897
-898
-900
-903
-906
-905
-904
-902
-899
-897
-896
-897
-899
-901
-903
-906
-906
-903
-901
-898
-896
-897
-900
-905
-906
-908
-909
-908
-907
-904
-903
-903
-903
-906
-908
-910
-911
-911
-908
-905
-904
-905
-905
-908
-911
-912
-911
-910
-907
-903
-902
-903
-906
-909
-911
-914
-914
-913
-910
-908
-908
-908
-908
-912
-916
-916
-914
-913
-910
-908
-908
-910
-911
-913
-914
-914
-916
-916
-912
-910
-909
-909
-911
-914
-916
-915
-915
-914
-911
-910
-911
-909
-911
-914
-916
-916
-916
-914
-913
-908
-906
-909
-915
-916
-919
-918
-916
-915
-911
-908
-910
-912
-912
-916
-921
-920
-919
-914
-911
-911
-911
-913
-914
-915
-917
-919
-919
-915
-911
-909
-909
-907
-908
-908
-906
-905
-904
-901
-897
-896
-896
-898
-904
-908
-909
-908
-903
-899
-894
-893
-893
-892
-895
-899
-900
-902
-902
-899
-897
-895
-895
-900
-906
-910
-913
-913
-912
-909
-906
-905
-906
-909
-913
-915
-917
-918
-917
-915
-913
-911
-911
-914
-916
-918
-920
-920
-919
-917
-914
-912
-913
-914
-916
-918
-918
-918
-916
-914
-915
-913
-913
-915
-916
-917
-918
-915
-913
-911
-908
-907
-909
-902
-887
-864
-836
-804
-766
-732
-706
-684
-693
-748
-800
-841
-874
-884
-881
-880
-886
-900
-921
-935
-950
-961
-968
-970
-971
-969
-965
-964
-962
-959
-953
-945
-937
-930
-922
-916
-911
-910
-908
-910
-912
-912
-911
-909
-905
-901
-899
-897
-898
-901
-905
-907
-908
-907
-902
-897
-894
-895
-897
-898
-900
-901
-900
-898
-897
-892
-889
-889
-890
-892
-895
-898
-898
-898
-893
-888
-886
-885
-886
-888
-888
-889
-890
-886
-884
-882
-878
-878
-878
-880
-881
-881
-880
-878
-873
-868
-866
-866
-867
-868
-870
-869
-866
-863
-859
-855
-853
-853
-853
-852
-853
-853
-852
-848
-843
-840
-837
-837
-840
-841
-843
-843
-842
-841
-838
-834
-833
-836
-838
-842
-845
-847
-849
-850
-848
-846
-848
-851
-856
-862
-867
-869
-870
-871
-872
-873
-873
-877
-883
-888
-891
-895
-897
-896
-894
-893
-891
-893
-898
-902
-907
-909
-909
-908
-906
-904
-903
-903
-906
-910
-910
-909
-911
-909
-907
-905
-903
-903
-906
-909
-911
-912
-912
-910
-907
-905
-905
-903
-906
-909
-910
-912
-912
-910
-906
-903
-902
-903
-907
-908
-911
-912
-911
-908
-905
-904
-905
-906
-907
-911
-914
-911
-911
-911
-907
-904
-904
-905
-907
-911
-914
-915
-914
-913
-910
-907
-906
-907
-911
-913
-915
-915
-914
-913
-912
-912
-912
-913
-914
-916
-918
-918
-917
-915
-914
-912
-911
-913
-916
-917
-919
-921
-917
-915
-913
-913
-913
-916
-917
-919
-921
-921
-920
-918
-915
-913
-912
-916
-918
-920
-922
-923
-921
-918
-916
-915
-914
-916
-917
-919
-922
-924
-923
-920
-918
-915
-914
-915
-918
-920
-922
-920
-919
-919
-919
-917
-915
-918
-922
-921
-923
-925
-921
-917
-916
-916
-917
-921
-922
-924
-924
-923
-922
-918
-916
-915
-918
-920
-922
-924
-926
-925
-921
-918
-916
-915
-914
-915
-916
-917
-915
-912
-910
-909
-907
-906
-906
-910
-914
-915
-914
-910
-906
-903
-899
-896
-899
-901
-905
-909
-911
-911
-910
-909
-906
-906
-909
-912
-914
-917
-919
-917
-915
-915
-915
-915
-917
-920
-925
-926
-924
-922
-921
-923
-921
-922
-923
-926
-927
-927
-927
-927
-924
-921
-920
-917
-920
-923
-925
-926
-926
-927
-923
-921
-921
-922
-922
-923
-924
-923
-921
-918
-915
-913
-913
-913
-905
-889
-863
-835
-803
-769
-739
-717
-701
-725
-774
-817
-857
-886
-890
-889
-891
-897
-909
-925
-938
-950
-961
-966
-974
-978
-976
-970
-967
-965
-962
-957
-950
-943
-940
-934
-926
-921
-917
-913
-913
-916
-917
-917
-917
-915
-912
-909
-906
-908
-909
-911
-911
-911
-911
-909
-906
-906
-903
-902
-905
-905
-906
-907
-906
-903
-899
-895
-895
-897
-899
-900
-902
-903
-902
-898
-894
-891
-891
-894
-896
-897
-897
-897
-895
-892
-889
-887
-886
-886
-888
-889
-889
-889
-886
-883
-879
-875
-873
-874
-876
-878
-878
-876
-873
-868
-864
-859
-856
-856
-857
-858
-858
-858
-856
-854
-849
-846
-845
-845
-847
-848
-849
-850
-850
-848
-843
-840
-842
-844
-847
-851
-856
-859
-859
-860
-858
-858
-860
-863
-869
-875
-878
-882
-883
-882
-880
-881
-884
-888
-893
-899
-902
-904
-904
-902
-899
-899
-900
-902
-907
-911
-913
-915
-916
-913
-912
-908
-907
-910
-912
-915
-916
-919
-918
-916
-913
-912
-910
-912
-913
-915
-916
-916
-915
-913
-911
-908
-908
-909
-912
-914
-915
-915
-913
-910
-908
-908
-908
-910
-913
-914
-915
-915
-913
-911
-910
-910
-911
-914
-915
-917
-916
-915
-914
-911
-911
-911
-913
-915
-916
-918
-919
-919
-917
-914
-911
-911
-912
-914
-918
-920
-921
-921
-919
-916
-912
-910
-913
-915
-917
-920
-921
-920
-920
-917
-914
-914
-916
-920
-921
-921
-923
-923
-921
-917
-915
-914
-914
-919
-924
-924
-923
-923
-920
-917
-915
-916
-917
-919
-921
-923
-923
-921
-919
-918
-916
-917
-917
-919
-921
-922
-922
-923
-921
-917
-915
-915
-917
-919
-921
-922
-923
-922
-919
-917
-915
-916
-918
-919
-921
-923
-924
-923
-920
-918
-917
-918
-919
-921
-922
-922
-922
-922
-919
-915
-912
-912
-909
-908
-910
-911
-910
-908
-908
-906
-904
-907
-908
-908
-908
-907
-905
-903
-900
-896
-894
-896
-901
-903
-907
-909
-909
-908
-906
-902
-903
-908
-913
-916
-919
-919
-917
-915
-914
-913
-914
-915
-917
-918
-921
-923
-924
-922
-921
-920
-917
-919
-920
-923
-924
-925
-924
-922
-919
-918
-917
-919
-921
-922
-925
-926
-923
-921
-917
-916
-918
-918
-918
-919
-918
-917
-916
-914
-913
-913
-906
-888
-862
-833
-801
-767
-731
-701
-677
-677
-727
-783
-829
-868
-885
-888
-892
-900
-914
-934
-950
-961
-968
-974
-977
-979
-980
-974
-968
-964
-956
-948
-940
-935
-931
-927
-922
-918
-913
-910
-907
-907
-909
-910
-911
-912
-909
-906
-904
-902
-901
-902
-904
-905
-906
-906
-903
-899
-896
-894
-894
-897
-900
-901
-902
-901
-899
-896
-892
-888
-886
-889
-891
-893
-894
-894
-892
-890
-887
-885
-885
-884
-885
-886
-887
-885
-883
-881
-878
-876
-876
-875
-878
-877
-878
-876
-874
-870
-865
-865
-862
-861
-861
-861
-860
-858
-853
-849
-845
-842
-841
-841
-841
-839
-838
-837
-836
-833
-826
-825
-826
-827
-829
-830
-831
-831
-829
-827
-826
-826
-827
-829
-832
-836
-841
-842
-843
-844
-844
-846
-848
-854
-861
-865
-867
-871
-872
-871
-871
-873
-874
-879
-885
-887
-891
-892
-890
-888
-889
-891
-892
-895
-897
-899
-901
-901
-899
-897
-896
-895
-897
-900
-901
-903
-905
-904
-902
-900
-898
-897
-898
-899
-902
-905
-905
-904
-903
-901
-897
-895
-896
-898
-900
-900
-901
-901
-899
-897
-895
-893
-895
-895
-898
-901
-903
-901
-898
-897
-895
-896
-896
-899
-901
-903
-903
-902
-900
-897
-895
-896
-899
-901
-904
-906
-905
-903
-902
-900
-899
-899
-899
-903
-904
-905
-907
-907
-906
-904
-902
-902
-903
-904
-906
-908
-908
-907
-903
-900
-900
-901
-903
-906
-908
-910
-910
-908
-905
-903
-901
-902
-903
-906
-908
-910
-909
-908
-907
-905
-904
-904
-906
-907
-910
-910
-911
-910
-907
-905
-906
-905
-906
-907
-909
-909
-907
-905
-903
-901
-902
-902
-905
-908
-908
-910
-910
-907
-906
-904
-903
-904
-905
-907
-909
-911
-911
-908
-906
-904
-903
-903
-905
-908
-910
-912
-912
-910
-908
-903
-904
-905
-906
-908
-909
-909
-908
-905
-901
-899
-894
-891
-891
-894
-896
-895
-895
-895
-892
-890
-889
-890
-893
-894
-892
-892
-890
-886
-883
-882
-883
-886
-890
-893
-893
-894
-894
-893
-891
-893
-896
-898
-900
-900
-901
-903
-904
-902
-899
-898
-899
-901
-903
-906
-908
-907
-907
-905
-901
-899
-900
-903
-906
-908
-909
-910
-908
-904
-900
-901
-902
-902
-904
-905
-906
-906
-906
-903
-900
-899
-899
-901
-902
-903
-903
-902
-899
-898
-895
-879
-857
-828
-796
-761
-723
-690
-662
-641
-665
-724
-778
-824
-855
-865
-869
-877
-888
-906
-923
-936
-948
-958
-962
-964
-963
-962
-959
-955
-946
-935
-925
-917
-912
-906
-905
-904
-900
-894
-890
-888
-888
-889
-891
-892
-894
-893
-889
-884
-883
-881
-881
-881
-883
-885
-886
-884
-882
-880
-877
-876
-877
-879
-881
-883
-882
-880
-878
-873
-872
-872
-870
-872
-875
-877
-879
-877
-873
-869
-866
-866
-866
-867
-869
-872
-871
-868
-865
-862
-858
-856
-857
-858
-859
-859
-857
-854
-852
-848
-845
-842
-842
-843
-843
-842
-841
-837
-833
-828
-824
-822
-821
-822
-823
-823
-823
-820
-816
-812
-810
-809
-810
-812
-814
-814
-814
-813
-810
-809
-806
-807
-811
-814
-819
-822
-826
-828
-829
-828
-828
-832
-839
-844
-848
-852
-855
-857
-857
-858
-858
-860
-864
-870
-874
-877
-879
-879
-878
-876
-876
-878
-882
-885
-888
-890
-890
-890
-889
-888
-887
-887
-890
-892
-892
-892
-893
-892
-888
-884
-882
-882
-886
-889
-891
-894
-892
-889
-888
-885
-884
-886
-888
-891
-893
-893
-892
-889
-887
-886
-886
-886
-888
-890
-894
-894
-895
-893
-891
-888
-885
-887
-890
-892
-896
-898
-898
-895
-892
-891
-889
-888
-892
-894
-896
-900
-897
-895
-893
-892
-891
-892
-893
-896
-896
-899
-902
-896
-894
-893
-894
-895
-899
-901
-902
-902
-902
-900
-897
-896
-899
-899
-902
-903
-904
-904
-904
-902
-899
-896
-895
-897
-899
-901
-903
-902
-901
-897
-895
-895
-893
-895
-897
-899
-902
-903
-902
-900
-897
-894
-894
-896
-898
-900
-900
-901
-901
-899
-897
-895
-894
-896
-899
-901
-901
-901
-899
-897
-895
-894
-895
-897
-900
-904
-904
-904
-902
-898
-896
-894
-895
-897
-899
-900
-902
-903
-902
-900
-898
-894
-893
-894
-898
-901
-903
-903
-902
-899
-897
-895
-893
-895
-897
-896
-893
-892
-891
-888
-886
-885
-886
-887
-890
-893
-894
-891
-886
-885
-882
-880
-879
-881
-882
-886
-889
-890
-887
-884
-883
-881
-882
-886
-891
-897
-900
-899
-897
-895
-893
-889
-894
-899
-905
-907
-908
-906
-904
-901
-900
-900
-899
-901
-905
-906
-907
-908
-905
-905
-900
-899
-901
-906
-909
-909
-912
-913
-911
-906
-901
-899
-898
-901
-903
-904
-903
-902
-899
-896
-893
-894
-898
-895
-881
-857
-827
-793
-758
-722
-693
-671
-670
-723
-776
-819
-854
-868
-867
-866
-872
-883
-902
-918
-933
-946
-953
-956
-958
-957
-955
-952
-953
-950
-945
-938
-933
-925
-916
-910
-906
-901
-900
-900
-903
-902
-901
-900
-896
-893
-891
-890
-891
-894
-897
-897
-896
-894
-891
-889
-886
-885
-888
-890
-891
-893
-894
-893
-889
-886
-884
-882
-885
-885
-886
-887
-886
-884
-881
-880
-877
-875
-877
-881
-881
-883
-881
-878
-875
-872
-870
-869
-870
-872
-873
-874
-874
-869
-865
-862
-859
-858
-858
-860
-860
-860
-857
-853
-848
-842
-842
-842
-843
-844
-843
-843
-843
-839
-835
-832
-830
-829
-828
-830
-835
-835
-830
-828
-827
-825
-827
-826
-824
-829
-830
-833
-835
-835
-833
-834
-837
-839
-844
-850
-854
-857
-858
-860
-859
-859
-862
-866
-869
-875
-877
-879
-881
-881
-880
-879
-880
-883
-889
-893
-894
-896
-896
-895
-893
-893
-894
-895
-897
-899
-900
-902
-900
-897
-896
-895
-896
-897
-896
-900
-902
-901
-899
-897
-895
-893
-894
-899
-899
-900
-901
-900
-897
-895
-894
-892
-892
-892
-894
-897
-899
-899
-899
-899
-897
-895
-893
-894
-897
-899
-901
-902
-901
-899
-897
-896
-896
-896
-899
-900
-901
-903
-902
-900
-897
-897
-897
-898
-901
-902
-903
-903
-902
-901
-899
-897
-897
-899
-900
-903
-906
-906
-903
-902
-900
-899
-900
-902
-905
-907
-910
-909
-907
-906
-904
-902
-902
-903
-907
-909
-909
-908
-907
-903
-901
-899
-900
-903
-907
-910
-912
-910
-909
-906
-901
-901
-904
-905
-907
-909
-909
-907
-908
-905
-903
-903
-904
-904
-905
-908
-909
-909
-908
-905
-902
-902
-903
-905
-908
-910
-908
-908
-908
-905
-903
-904
-905
-906
-907
-909
-909
-906
-904
-901
-898
-895
-893
-895
-895
-896
-899
-898
-894
-893
-891
-889
-889
-889
-889
-889
-890
-890
-887
-885
-884
-885
-887
-888
-890
-893
-894
-894
-893
-892
-892
-893
-895
-896
-899
-901
-902
-902
-902
-901
-900
-899
-901
-903
-905
-908
-908
-908
-907
-904
-901
-902
-903
-905
-909
-912
-909
-907
-904
-903
-900
-900
-902
-904
-907
-908
-907
-906
-904
-901
-899
-898
-898
-898
-901
-903
-902
-903
-898
-882
-857
-828
-799
-768
-738
-715
-695
-689
-725
-772
-810
-843
-864
-867
-871
-877
-887
-901
-912
-921
-931
-939
-946
-953
-958
-959
-955
-952
-947
-939
-931
-923
-918
-915
-912
-910
-905
-900
-898
-895
-893
-892
-893
-893
-894
-897
-896
-892
-890
-887
-887
-886
-890
-891
-891
-891
-891
-887
-884
-881
-879
-881
-882
-884
-885
-885
-885
-883
-880
-877
-875
-876
-877
-879
-881
-880
-879
-877
-875
-870
-869
-871
-873
-873
-872
-873
-871
-867
-865
-863
-861
-862
-864
-865
-866
-865
-862
-858
-854
-850
-848
-847
-848
-850
-849
-847
-843
-838
-834
-831
-830
-831
-832
-833
-834
-833
-830
-828
-824
-822
-821
-822
-823
-827
-831
-832
-831
-828
-825
-823
-822
-826
-830
-834
-837
-839
-841
-842
-843
-843
-847
-852
-855
-861
-865
-867
-867
-866
-867
-867
-870
-873
-876
-878
-881
-883
-884
-882
-881
-881
-882
-884
-890
-892
-891
-892
-891
-890
-889
-887
-885
-888
-890
-890
-892
-892
-889
-887
-887
-887
-886
-884
-887
-890
-891
-891
-889
-885
-883
-883
-884
-886
-889
-891
-889
-890
-889
-886
-884
-882
-884
-888
-890
-892
-892
-890
-891
-888
-885
-884
-885
-887
-888
-890
-891
-892
-889
-887
-885
-884
-886
-888
-891
-892
-892
-894
-893
-889
-887
-886
-886
-889
-892
-894
-895
-895
-892
-892
-889
-889
-890
-892
-896
-899
-899
-898
-896
-893
-890
-891
-890
-894
-897
-898
-899
-896
-894
-895
-893
-890
-891
-893
-896
-898
-898
-896
-895
-892
-891
-890
-890
-894
-896
-898
-899
-899
-897
-893
-891
-891
-892
-894
-899
-901
-901
-899
-896
-893
-892
-891
-893
-896
-897
-897
-899
-898
-896
-895
-891
-888
-888
-887
-886
-884
-883
-881
-879
-879
-879
-878
-881
-886
-888
-889
-887
-882
-878
-875
-872
-871
-872
-876
-881
-884
-885
-885
-883
-883
-878
-879
-884
-888
-893
-896
-896
-894
-889
-888
-888
-890
-893
-896
-899
-900
-900
-899
-897
-894
-894
-895
-895
-899
-901
-904
-902
-901
-898
-895
-894
-896
-898
-900
-900
-902
-901
-900
-898
-895
-894
-894
-896
-896
-899
-900
-897
-893
-891
-888
-889
-892
-885
-867
-840
-806
-769
-730
-693
-664
-640
-648
-705
-762
-811
-848
-860
-860
-863
-872
-888
-909
-930
-944
-955
-959
-958
-954
-951
-948
-944
-939
-933
-925
-917
-911
-905
-897
-891
-886
-884
-882
-884
-886
-887
-885
-885
-880
-877
-875
-873
-874
-877
-878
-879
-880
-878
-875
-872
-869
-869
-870
-872
-871
-873
-875
-871
-870
-868
-867
-866
-866
-865
-866
-868
-869
-868
-866
-862
-858
-859
-857
-859
-863
-861
-862
-860
-856
-853
-851
-850
-850
-851
-852
-852
-850
-848
-844
-841
-836
-836
-837
-837
-837
-837
-835
-832
-828
-822
-817
-815
-816
-817
-817
-816
-815
-813
-810
-806
-805
-805
-805
-806
-807
-807
-805
-803
-800
-799
-798
-799
-802
-806
-808
-810
-815
-816
-814
-815
-816
-819
-825
-831
-836
-840
-843
-844
-844
-845
-848
-851
-855
-858
-862
-865
-866
-866
-866
-865
-866
-869
-873
-879
-881
-881
-880
-880
-879
-876
-874
-876
-879
-880
-883
-884
-883
-880
-880
-878
-876
-876
-879
-883
-885
-883
-883
-879
-876
-873
-873
-875
-876
-879
-881
-882
-882
-878
-875
-873
-874
-874
-877
-880
-882
-882
-881
-878
-877
-876
-875
-877
-880
-883
-884
-884
-883
-881
-877
-875
-875
-877
-879
-882
-886
-886
-884
-881
-880
-877
-876
-879
-880
-884
-887
-886
-885
-884
-882
-880
-882
-883
-884
-886
-888
-890
-888
-885
-881
-881
-880
-882
-885
-888
-890
-890
-888
-886
-882
-881
-882
-882
-885
-888
-889
-889
-888
-885
-883
-882
-882
-885
-888
-889
-890
-892
-890
-887
-883
-881
-882
-886
-890
-891
-891
-892
-891
-888
-885
-885
-886
-889
-890
-891
-891
-891
-890
-887
-884
-883
-884
-886
-889
-891
-890
-889
-885
-880
-873
-870
-869
-870
-873
-875
-876
-876
-876
-875
-874
-873
-872
-871
-871
-871
-873
-873
-869
-867
-869
-869
-871
-874
-875
-876
-876
-876
-878
-879
-879
-880
-880
-882
-885
-888
-889
-890
-892
-889
-887
-887
-887
-889
-890
-892
-894
-893
-891
-889
-887
-886
-887
-891
-893
-895
-896
-895
-892
-888
-886
-886
-885
-888
-889
-890
-894
-893
-889
-886
-883
-882
-881
-882
-886
-886
-890
-891
-877
-853
-820
-784
-751
-716
-683
-656
-638
-656
-713
-764
-807
-837
-847
-854
-863
-875
-895
-913
-925
-935
-943
-946
-945
-945
-947
-946
-943
-936
-925
-911
-901
-894
-890
-889
-888
-885
-884
-881
-877
-875
-875
-873
-873
-874
-878
-879
-877
-875
-872
-868
-864
-866
-867
-869
-872
-872
-873
-871
-867
-864
-863
-863
-864
-866
-867
-866
-865
-865
-863
-860
-857
-858
-859
-861
-861
-862
-861
-858
-854
-851
-850
-851
-852
-854
-855
-855
-855
-852
-848
-844
-841
-841
-842
-843
-842
-842
-841
-837
-833
-830
-826
-826
-827
-828
-827
-826
-822
-819
-814
-809
-806
-805
-806
-808
-808
-808
-807
-804
-801
-797
-796
-797
-798
-800
-803
-804
-805
-803
-800
-800
-801
-804
-808
-814
-817
-820
-824
-825
-823
-825
-827
-833
-838
-842
-847
-850
-850
-850
-851
-852
-854
-856
-863
-867
-869
-869
-869
-868
-867
-865
-867
-870
-873
-875
-876
-878
-877
-874
-871
-870
-870
-871
-874
-876
-877
-877
-877
-876
-872
-870
-871
-871
-873
-874
-877
-878
-877
-875
-872
-871
-870
-871
-875
-876
-879
-879
-877
-874
-872
-870
-870
-872
-875
-878
-878
-878
-879
-876
-874
-873
-874
-876
-878
-881
-883
-880
-879
-877
-875
-874
-875
-877
-880
-882
-883
-881
-882
-880
-877
-876
-877
-878
-882
-884
-885
-883
-882
-878
-876
-875
-877
-880
-883
-885
-887
-887
-886
-884
-880
-878
-880
-882
-884
-886
-890
-887
-883
-879
-879
-881
-880
-880
-885
-887
-886
-888
-887
-883
-881
-880
-880
-883
-886
-888
-888
-888
-887
-883
-880
-879
-881
-883
-887
-888
-889
-889
-887
-884
-880
-880
-879
-880
-881
-880
-875
-872
-870
-869
-866
-867
-869
-870
-876
-879
-879
-878
-872
-867
-864
-863
-862
-865
-869
-870
-872
-871
-869
-867
-866
-867
-869
-874
-879
-885
-886
-884
-881
-877
-877
-879
-881
-885
-889
-891
-892
-892
-890
-887
-884
-885
-887
-890
-892
-894
-895
-894
-891
-888
-886
-887
-888
-891
-893
-894
-893
-892
-890
-888
-887
-886
-889
-891
-893
-894
-892
-889
-886
-882
-880
-880
-884
-886
-875
-855
-825
-792
-756
-717
-687
-667
-655
-689
-750
-797
-833
-853
-853
-851
-857
-868
-887
-906
-920
-933
-943
-945
-943
-942
-938
-938
-938
-935
-930
-923
-915
-905
-897
-891
-887
-886
-885
-885
-886
-885
-883
-881
-877
-875
-873
-873
-875
-878
-879
-881
-880
-876
-872
-868
-867
-867
-869
-871
-873
-875
-874
-872
-868
-865
-864
-863
-865
-867
-868
-868
-868
-865
-862
-860
-860
-858
-861
-863
-864
-864
-863
-859
-856
-853
-851
-853
-855
-856
-857
-857
-855
-851
-846
-843
-841
-840
-841
-843
-843
-845
-844
-839
-833
-828
-823
-824
-826
-826
-827
-826
-823
-819
-815
-812
-812
-812
-815
-817
-817
-817
-815
-812
-810
-808
-808
-808
-811
-815
-819
-821
-821
-819
-819
-820
-822
-826
-831
-837
-841
-843
-843
-844
-843
-843
-845
-850
-856
-860
-863
-865
-866
-864
-863
-865
-866
-870
-874
-877
-880
-880
-880
-878
-876
-874
-876
-878
-880
-883
-884
-884
-881
-878
-877
-877
-878
-881
-883
-883
-884
-885
-883
-880
-878
-877
-876
-876
-879
-880
-882
-883
-881
-878
-876
-875
-876
-879
-883
-885
-885
-884
-881
-879
-878
-877
-876
-878
-880
-883
-884
-884
-882
-881
-877
-878
-878
-881
-885
-886
-886
-886
-884
-882
-879
-879
-880
-883
-886
-886
-888
-889
-887
-886
-884
-883
-881
-882
-884
-886
-888
-888
-886
-885
-883
-883
-884
-886
-888
-891
-892
-890
-887
-885
-883
-883
-884
-887
-890
-891
-890
-890
-890
-887
-883
-884
-884
-888
-892
-893
-894
-894
-890
-886
-884
-882
-884
-886
-892
-895
-894
-891
-890
-889
-887
-888
-887
-890
-891
-890
-892
-892
-889
-884
-881
-880
-879
-877
-879
-882
-882
-881
-878
-874
-873
-875
-879
-883
-885
-883
-879
-874
-871
-869
-867
-866
-868
-870
-876
-880
-880
-880
-878
-876
-874
-877
-882
-888
-891
-890
-890
-890
-887
-885
-885
-887
-891
-894
-897
-899
-898
-896
-894
-891
-889
-891
-893
-895
-898
-898
-898
-897
-895
-894
-892
-892
-895
-897
-898
-898
-897
-895
-894
-892
-891
-891
-892
-895
-896
-895
-895
-893
-893
-892
-891
-880
-862
-836
-805
-772
-737
-707
-684
-666
-691
-749
-797
-835
-862
-867
-865
-864
-867
-878
-895
-908
-920
-932
-940
-946
-948
-946
-943
-939
-937
-933
-926
-919
-914
-908
-903
-898
-891
-885
-883
-884
-886
-887
-888
-888
-885
-883
-879
-876
-876
-877
-879
-882
-883
-881
-879
-876
-873
-871
-871
-872
-873
-876
-877
-878
-876
-873
-870
-868
-865
-866
-869
-871
-871
-871
-868
-867
-864
-863
-862
-863
-864
-866
-867
-866
-864
-861
-856
-854
-853
-851
-853
-854
-855
-855
-852
-849
-846
-842
-841
-841
-841
-842
-843
-841
-837
-830
-827
-825
-823
-823
-823
-824
-824
-824
-823
-820
-817
-812
-811
-811
-811
-813
-813
-814
-812
-809
-807
-807
-808
-811
-815
-818
-820
-823
-822
-822
-822
-825
-828
-833
-837
-841
-845
-849
-850
-850
-850
-850
-852
-855
-861
-865
-868
-868
-869
-867
-866
-866
-868
-871
-876
-879
-878
-878
-878
-876
-874
-873
-873
-876
-879
-881
-882
-881
-879
-876
-874
-873
-875
-877
-881
-882
-882
-880
-880
-876
-873
-873
-873
-876
-880
-882
-883
-883
-879
-876
-875
-875
-876
-876
-879
-881
-882
-881
-880
-879
-876
-875
-876
-881
-883
-885
-885
-884
-882
-879
-879
-878
-879
-883
-886
-887
-888
-888
-886
-882
-878
-879
-880
-883
-886
-888
-888
-887
-885
-881
-880
-879
-882
-885
-888
-889
-889
-888
-886
-883
-881
-881
-883
-886
-888
-892
-894
-890
-886
-883
-882
-884
-886
-889
-890
-890
-889
-890
-888
-886
-884
-884
-884
-887
-891
-891
-891
-892
-888
-884
-882
-882
-884
-888
-889
-892
-893
-891
-888
-884
-881
-882
-884
-887
-890
-891
-891
-890
-887
-884
-882
-881
-881
-884
-883
-881
-878
-874
-870
-870
-867
-868
-870
-873
-875
-879
-879
-878
-876
-869
-865
-865
-865
-867
-867
-868
-870
-871
-869
-867
-866
-867
-871
-873
-877
-881
-885
-886
-881
-877
-878
-879
-882
-884
-889
-891
-890
-888
-885
-883
-883
-884
-888
-892
-894
-894
-893
-891
-888
-886
-886
-886
-888
-891
-893
-892
-890
-889
-886
-885
-885
-886
-888
-889
-891
-891
-890
-887
-883
-880
-879
-879
-881
-886
-884
-871
-846
-809
-772
-733
-694
-663
-642
-633
-673
-736
-786
-824
-844
-846
-847
-856
-874
-899
-917
-931
-941
-944
-944
-941
-939
-937
-941
-941
-935
-926
-914
-904
-894
-886
-881
-882
-882
-882
-881
-880
-878
-875
-872
-870
-869
-871
-873
-874
-874
-874
-873
-869
-865
-864
-864
-866
-867
-869
-871
-872
-869
-865
-862
-859
-859
-861
-863
-865
-866
-866
-863
-859
-857
-854
-853
-855
-858
-860
-862
-860
-857
-853
-850
-848
-847
-847
-849
-851
-851
-850
-847
-843
-839
-836
-834
-836
-837
-838
-838
-837
-833
-827
-822
-818
-816
-817
-818
-817
-816
-815
-812
-808
-805
-801
-800
-803
-804
-804
-803
-802
-799
-796
-793
-792
-792
-794
-797
-800
-802
-802
-800
-801
-801
-803
-805
-809
-814
-821
-827
-829
-829
-830
-830
-832
-836
-842
-845
-849
-853
-854
-854
-854
-853
-854
-857
-860
-862
-868
-870
-871
-870
-868
-867
-867
-869
-872
-874
-876
-876
-875
-873
-872
-870
-869
-870
-872
-876
-877
-878
-877
-874
-871
-868
-868
-869
-871
-873
-875
-876
-875
-874
-870
-867
-867
-869
-872
-874
-877
-877
-875
-872
-870
-869
-869
-869
-873
-875
-878
-878
-876
-874
-872
-872
-872
-874
-876
-878
-880
-882
-881
-876
-873
-873
-875
-877
-878
-881
-882
-882
-880
-878
-875
-874
-874
-876
-880
-881
-882
-884
-883
-880
-877
-876
-877
-879
-881
-883
-885
-885
-883
-881
-878
-877
-878
-880
-882
-883
-885
-886
-884
-880
-878
-878
-878
-881
-885
-887
-888
-887
-886
-882
-879
-879
-880
-881
-883
-885
-886
-886
-885
-883
-879
-878
-879
-881
-883
-885
-887
-886
-884
-882
-880
-879
-880
-882
-886
-887
-887
-886
-883
-880
-878
-877
-876
-876
-875
-875
-874
-873
-871
-868
-865
-863
-864
-870
-875
-878
-877
-875
-868
-866
-863
-860
-859
-862
-865
-870
-872
-871
-869
-868
-866
-867
-869
-872
-879
-883
-885
-882
-879
-876
-874
-876
-880
-884
-888
-890
-889
-889
-887
-883
-879
-880
-883
-885
-891
-892
-893
-891
-887
-884
-882
-884
-885
-888
-891
-891
-890
-889
-887
-884
-882
-882
-885
-888
-891
-892
-889
-885
-882
-878
-876
-878
-881
-874
-857
-829
-794
-758
-721
-686
-659
-640
-664
-728
-783
-823
-850
-853
-850
-852
-859
-876
-897
-912
-927
-940
-944
-945
-944
-941
-937
-935
-932
-927
-920
-913
-907
-901
-893
-887
-882
-880
-879
-879
-881
-882
-881
-880
-877
-875
-874
-873
-873
-876
-875
-874
-872
-870
-868
-867
-864
-865
-868
-870
-871
-871
-870
-868
-864
-860
-859
-859
-862
-864
-865
-866
-865
-863
-860
-857
-855
-855
-858
-859
-860
-860
-860
-857
-853
-849
-847
-848
-852
-853
-854
-853
-850
-847
-843
-838
-836
-837
-838
-839
-840
-838
-836
-832
-826
-823
-818
-817
-818
-820
-819
-819
-818
-814
-809
-806
-805
-805
-807
-809
-810
-809
-809
-807
-805
-804
-803
-805
-809
-811
-815
-817
-817
-817
-817
-818
-822
-823
-828
-834
-837
-839
-840
-840
-839
-840
-844
-849
-853
-857
-863
-866
-865
-864
-863
-863
-864
-868
-873
-876
-877
-878
-878
-876
-873
-874
-876
-880
-883
-884
-882
-883
-883
-881
-879
-878
-877
-878
-880
-883
-883
-884
-882
-879
-877
-876
-879
-879
-878
-881
-882
-880
-880
-878
-877
-875
-877
-879
-881
-882
-884
-884
-883
-880
-877
-876
-877
-880
-882
-885
-887
-887
-885
-884
-882
-880
-882
-884
-886
-889
-890
-888
-885
-880
-879
-879
-880
-882
-887
-890
-892
-893
-892
-888
-884
-883
-885
-888
-888
-890
-893
-893
-891
-888
-886
-884
-886
-890
-891
-894
-895
-895
-894
-892
-890
-889
-889
-892
-895
-898
-898
-895
-892
-891
-889
-888
-886
-888
-894
-897
-899
-899
-897
-893
-892
-890
-890
-890
-892
-893
-894
-896
-895
-894
-891
-890
-889
-890
-892
-895
-897
-897
-894
-890
-888
-891
-893
-895
-899
-900
-898
-897
-895
-891
-889
-886
-886
-886
-887
-887
-885
-884
-885
-882
-880
-877
-879
-883
-888
-888
-888
-885
-879
-873
-873
-873
-874
-877
-880
-883
-883
-882
-880
-878
-879
-879
-881
-885
-889
-893
-896
-895
-893
-891
-891
-891
-894
-897
-899
-901
-901
-901
-898
-893
-891
-892
-895
-900
-905
-907
-906
-905
-902
-898
-894
-895
-898
-901
-904
-905
-903
-902
-900
-897
-894
-895
-897
-900
-903
-903
-903
-900
-895
-893
-891
-893
-894
-889
-873
-846
-816
-783
-749
-717
-693
-675
-687
-741
-791
-827
-857
-867
-865
-867
-874
-886
-904
-918
-930
-939
-944
-946
-947
-947
-948
-946
-947
-946
-940
-931
-923
-917
-909
-901
-897
-897
-899
-898
-898
-898
-897
-893
-889
-885
-883
-884
-886
-889
-891
-890
-888
-888
-883
-880
-880
-881
-886
-888
-888
-888
-886
-882
-879
-876
-877
-878
-882
-884
-884
-884
-881
-878
-873
-871
-872
-873
-874
-876
-875
-873
-873
-871
-867
-864
-864
-863
-863
-865
-868
-867
-864
-861
-858
-855
-853
-854
-856
-856
-856
-854
-850
-844
-840
-837
-837
-837
-839
-839
-838
-839
-835
-830
-827
-824
-824
-825
-826
-829
-832
-830
-827
-824
-822
-817
-816
-820
-823
-826
-830
-831
-831
-831
-830
-832
-833
-837
-843
-847
-852
-855
-856
-855
-853
-854
-857
-859
-865
-869
-872
-875
-877
-876
-875
-876
-880
-883
-886
-889
-889
-889
-887
-884
-883
-884
-885
-889
-893
-895
-897
-895
-892
-890
-889
-886
-890
-894
-893
-894
-895
-894
-891
-889
-887
-887
-888
-889
-891
-892
-894
-893
-891
-888
-887
-887
-888
-890
-892
-895
-894
-892
-890
-888
-887
-887
-888
-893
-893
-895
-896
-895
-891
-888
-887
-887
-889
-892
-894
-896
-897
-896
-895
-893
-890
-888
-888
-891
-896
-900
-900
-900
-896
-892
-893
-893
-894
-897
-897
-902
-903
-902
-899
-897
-895
-894
-896
-898
-901
-903
-904
-903
-903
-901
-898
-900
-902
-903
-904
-904
-903
-901
-899
-896
-894
-893
-896
-898
-902
-904
-902
-901
-900
-897
-896
-896
-898
-900
-902
-904
-906
-905
-900
-898
-897
-897
-898
-903
-906
-906
-906
-905
-904
-902
-900
-899
-900
-903
-906
-907
-905
-904
-903
-900
-895
-891
-889
-891
-896
-896
-895
-893
-890
-887
-888
-890
-893
-895
-895
-893
-893
-892
-888
-883
-881
-883
-886
-890
-891
-893
-894
-893
-892
-890
-892
-894
-898
-901
-902
-903
-903
-901
-902
-903
-903
-905
-907
-908
-910
-910
-909
-909
-907
-902
-903
-905
-906
-910
-911
-911
-912
-910
-907
-904
-904
-903
-906
-909
-911
-912
-911
-908
-905
-902
-902
-904
-904
-903
-902
-902
-902
-900
-898
-897
-889
-870
-845
-818
-789
-759
-729
-704
-680
-688
-737
-785
-826
-861
-873
-874
-875
-880
-893
-909
-920
-935
-947
-956
-959
-962
-961
-958
-953
-949
-945
-938
-932
-925
-922
-918
-911
-905
-899
-896
-894
-893
-894
-900
-904
-900
-897
-895
-891
-889
-889
-889
-893
-896
-897
-895
-891
-887
-882
-881
-882
-885
-889
-891
-891
-891
-887
-883
-881
-879
-879
-882
-883
-883
-884
-884
-882
-880
-877
-873
-872
-876
-878
-879
-878
-877
-873
-870
-867
-864
-863
-865
-866
-868
-871
-868
-864
-859
-854
-851
-850
-853
-853
-852
-851
-847
-841
-837
-834
-833
-834
-834
-835
-834
-835
-834
-833
-829
-823
-821
-822
-824
-823
-826
-826
-825
-824
-822
-821
-821
-823
-826
-832
-836
-838
-840
-840
-841
-840
-843
-847
-851
-855
-858
-860
-864
-865
-865
-864
-864
-865
-870
-876
-880
-883
-885
-884
-884
-885
-885
-886
-889
-892
-893
-894
-894
-892
-890
-889
-890
-891
-895
-896
-899
-901
-898
-896
-894
-891
-891
-892
-895
-897
-898
-899
-896
-892
-890
-889
-889
-893
-895
-894
-894
-895
-896
-895
-893
-891
-889
-889
-891
-893
-892
-893
-894
-894
-891
-888
-889
-890
-892
-895
-896
-896
-895
-893
-890
-888
-887
-889
-894
-895
-899
-899
-899
-898
-893
-891
-891
-892
-895
-898
-899
-901
-900
-898
-895
-893
-892
-893
-897
-899
-902
-904
-903
-900
-896
-893
-893
-897
-900
-901
-903
-904
-903
-900
-897
-894
-895
-897
-899
-901
-903
-902
-901
-900
-897
-897
-899
-899
-902
-904
-905
-904
-902
-900
-900
-897
-895
-897
-899
-901
-903
-903
-901
-898
-897
-898
-898
-902
-905
-907
-909
-907
-904
-902
-899
-897
-897
-900
-901
-902
-902
-899
-893
-887
-885
-885
-884
-886
-891
-894
-895
-896
-895
-893
-890
-887
-883
-883
-885
-890
-891
-890
-888
-885
-883
-882
-881
-884
-890
-893
-894
-895
-897
-898
-898
-897
-896
-898
-901
-903
-904
-908
-907
-903
-901
-901
-903
-905
-907
-908
-907
-907
-904
-902
-902
-904
-906
-909
-912
-913
-912
-908
-904
-902
-901
-902
-902
-905
-907
-907
-910
-909
-905
-901
-899
-899
-899
-899
-901
-903
-905
-901
-885
-860
-830
-800
-769
-739
-712
-689
-677
-712
-762
-805
-841
-863
-868
-873
-880
-893
-912
-927
-937
-946
-953
-958
-960
-963
-962
-963
-959
-953
-943
-933
-923
-917
-915
-911
-908
-905
-902
-901
-900
-895
-894
-895
-896
-897
-898
-898
-896
-895
-892
-890
-887
-886
-888
-889
-891
-892
-890
-889
-886
-884
-883
-884
-886
-886
-887
-886
-885
-883
-879
-877
-876
-877
-880
-881
-882
-882
-879
-876
-873
-870
-869
-868
-870
-873
-875
-875
-873
-868
-865
-863
-862
-860
-861
-863
-862
-859
-855
-853
-849
-844
-841
-842
-843
-844
-844
-842
-840
-835
-830
-824
-819
-818
-819
-819
-821
-821
-821
-817
-813
-813
-810
-811
-814
-815
-817
-818
-818
-817
-817
-817
-820
-824
-826
-831
-835
-839
-842
-842
-842
-843
-845
-849
-853
-860
-865
-867
-870
-871
-870
-869
-871
-876
-878
-879
-882
-882
-883
-883
-881
-880
-881
-885
-888
-892
-895
-897
-894
-891
-891
-889
-888
-888
-890
-893
-893
-893
-894
-893
-889
-889
-890
-889
-891
-894
-894
-894
-893
-890
-887
-885
-885
-887
-890
-895
-896
-895
-894
-890
-886
-884
-885
-887
-891
-892
-894
-895
-893
-888
-886
-885
-887
-891
-893
-894
-895
-896
-894
-892
-890
-888
-890
-892
-895
-897
-899
-898
-896
-893
-892
-890
-891
-892
-897
-902
-904
-904
-902
-898
-897
-895
-896
-899
-902
-902
-900
-900
-899
-897
-894
-893
-895
-897
-900
-903
-904
-904
-900
-899
-897
-896
-895
-897
-902
-904
-904
-903
-902
-898
-896
-896
-897
-898
-900
-903
-903
-902
-902
-899
-897
-895
-897
-899
-901
-904
-907
-906
-903
-900
-898
-897
-897
-900
-902
-905
-906
-905
-902
-897
-894
-895
-896
-897
-901
-903
-904
-903
-902
-899
-897
-898
-898
-899
-901
-904
-905
-903
-899
-896
-895
-893
-893
-893
-891
-889
-889
-889
-887
-887
-886
-884
-885
-889
-890
-891
-890
-884
-880
-877
-877
-878
-877
-881
-884
-885
-887
-887
-884
-884
-881
-881
-884
-890
-894
-896
-897
-895
-891
-890
-890
-891
-894
-898
-899
-901
-902
-901
-900
-897
-895
-897
-899
-904
-905
-905
-904
-904
-901
-898
-895
-896
-899
-901
-902
-902
-902
-900
-899
-897
-897
-897
-899
-900
-898
-900
-897
-893
-891
-889
-887
-888
-891
-887
-870
-842
-807
-771
-730
-690
-657
-632
-637
-693
-753
-805
-844
-859
-862
-866
-875
-896
-918
-936
-950
-959
-962
-959
-953
-949
-947
-947
-947
-940
-932
-925
-915
-906
-895
-888
-887
-887
-888
-888
-888
-888
-887
-886
-883
-880
-879
-880
-882
-883
-884
-884
-882
-880
-877
-875
-875
-877
-880
-881
-881
-879
-877
-874
-870
-867
-867
-869
-871
-874
-874
-874
-874
-870
-867
-866
-865
-864
-868
-869
-869
-868
-865
-862
-858
-855
-854
-854
-856
-857
-858
-857
-853
-850
-847
-843
-840
-842
-845
-844
-845
-846
-840
-833
-824
-821
-821
-820
-818
-817
-816
-816
-815
-812
-808
-805
-802
-802
-802
-803
-804
-804
-800
-796
-794
-791
-793
-796
-799
-802
-805
-806
-806
-807
-807
-807
-811
-816
-824
-830
-834
-837
-838
-837
-836
-838
-842
-847
-853
-855
-856
-859
-861
-860
-861
-861
-864
-867
-871
-875
-877
-877
-875
-875
-875
-874
-875
-877
-878
-881
-884
-882
-880
-878
-876
-875
-875
-877
-880
-883
-883
-884
-883
-880
-877
-878
-878
-879
-881
-881
-881
-880
-876
-872
-871
-870
-872
-876
-879
-882
-881
-880
-879
-878
-876
-874
-872
-878
-881
-882
-885
-883
-880
-878
-876
-876
-876
-879
-882
-883
-884
-883
-881
-879
-877
-876
-879
-882
-885
-887
-887
-887
-884
-881
-877
-877
-878
-881
-884
-887
-888
-887
-884
-881
-880
-878
-880
-883
-887
-890
-889
-889
-886
-883
-882
-882
-884
-886
-887
-889
-891
-890
-887
-885
-883
-883
-885
-888
-891
-893
-892
-893
-891
-889
-887
-887
-887
-888
-889
-890
-891
-891
-889
-886
-884
-883
-885
-889
-892
-897
-898
-893
-889
-889
-886
-886
-887
-891
-892
-893
-893
-891
-889
-885
-886
-887
-888
-890
-890
-890
-894
-892
-889
-888
-886
-886
-891
-894
-895
-896
-897
-896
-892
-889
-885
-884
-887
-892
-895
-895
-895
-894
-892
-889
-890
-889
-888
-889
-891
-886
-882
-877
-874
-874
-873
-873
-874
-878
-881
-883
-881
-880
-874
-869
-867
-867
-869
-871
-874
-875
-877
-876
-872
-869
-870
-873
-878
-882
-884
-886
-887
-886
-882
-879
-879
-879
-883
-887
-891
-893
-893
-890
-888
-888
-887
-891
-892
-891
-894
-894
-892
-891
-889
-887
-887
-888
-890
-892
-895
-893
-892
-891
-889
-888
-887
-888
-890
-894
-895
-894
-893
-890
-885
-882
-882
-879
-881
-884
-875
-854
-823
-788
-749
-708
-674
-649
-632
-656
-718
-774
-816
-845
-849
-849
-855
-867
-889
-912
-928
-939
-946
-947
-944
-942
-942
-943
-942
-939
-932
-923
-913
-904
-897
-890
-887
-887
-887
-886
-885
-884
-882
-878
-876
-872
-872
-873
-876
-878
-880
-879
-878
-874
-872
-869
-870
-873
-875
-877
-877
-877
-874
-869
-866
-864
-863
-866
-870
-873
-871
-869
-868
-867
-863
-861
-862
-863
-866
-867
-867
-866
-862
-860
-857
-855
-854
-854
-855
-857
-857
-856
-853
-847
-844
-842
-840
-841
-841
-843
-845
-842
-837
-833
-830
-828
-828
-827
-827
-826
-824
-822
-818
-815
-812
-809
-810
-812
-813
-812
-810
-808
-804
-799
-796
-796
-799
-802
-804
-805
-806
-807
-808
-808
-808
-810
-815
-819
-825
-828
-832
-833
-833
-832
-833
-837
-840
-845
-850
-854
-858
-860
-858
-857
-859
-860
-862
-865
-871
-874
-876
-877
-877
-874
-872
-873
-877
-879
-880
-881
-881
-880
-877
-874
-873
-875
-878
-880
-880
-882
-882
-882
-879
-876
-875
-876
-877
-880
-883
-883
-883
-881
-879
-876
-875
-875
-877
-880
-882
-884
-883
-882
-878
-875
-875
-876
-877
-879
-881
-882
-882
-880
-879
-879
-879
-880
-882
-884
-884
-885
-886
-883
-880
-878
-877
-877
-880
-883
-884
-886
-886
-884
-883
-880
-879
-880
-883
-886
-889
-890
-889
-887
-885
-883
-880
-882
-884
-886
-888
-890
-889
-888
-886
-884
-884
-885
-887
-889
-889
-890
-891
-890
-887
-886
-884
-884
-885
-889
-893
-894
-895
-892
-888
-885
-883
-884
-888
-890
-892
-894
-893
-891
-889
-886
-884
-885
-888
-892
-894
-895
-894
-891
-886
-886
-886
-886
-888
-891
-894
-895
-894
-893
-891
-888
-887
-888
-891
-892
-894
-895
-896
-895
-891
-889
-888
-887
-889
-892
-895
-897
-896
-894
-892
-888
-887
-889
-891
-894
-896
-895
-894
-893
-890
-889
-889
-890
-893
-893
-894
-895
-893
-887
-881
-878
-878
-879
-881
-885
-887
-888
-886
-882
-879
-875
-873
-873
-877
-880
-879
-876
-875
-876
-877
-876
-877
-878
-882
-886
-886
-886
-887
-887
-885
-884
-883
-885
-890
-892
-895
-897
-896
-893
-892
-892
-892
-894
-897
-899
-900
-898
-897
-895
-892
-891
-893
-895
-898
-899
-900
-898
-896
-894
-890
-889
-890
-892
-895
-899
-900
-900
-898
-895
-891
-891
-891
-889
-889
-892
-895
-894
-883
-861
-831
-799
-767
-737
-708
-688
-671
-692
-743
-787
-822
-849
-856
-857
-863
-873
-888
-905
-915
-923
-929
-935
-940
-945
-948
-950
-949
-948
-941
-931
-920
-909
-904
-900
-898
-899
-898
-893
-891
-889
-884
-883
-881
-883
-886
-887
-887
-885
-882
-882
-881
-882
-881
-881
-882
-883
-883
-881
-879
-876
-873
-874
-874
-877
-879
-879
-879
-878
-874
-872
-869
-867
-869
-873
-875
-873
-872
-870
-868
-865
-861
-862
-865
-867
-868
-868
-867
-865
-861
-858
-854
-854
-852
-853
-856
-856
-855
-854
-850
-845
-842
-841
-839
-839
-839
-840
-839
-836
-832
-827
-824
-823
-824
-825
-826
-827
-826
-824
-819
-814
-812
-814
-814
-817
-819
-821
-822
-822
-820
-819
-817
-818
-821
-825
-832
-835
-836
-836
-834
-836
-839
-841
-846
-852
-856
-859
-860
-861
-861
-860
-861
-863
-867
-873
-879
-880
-881
-882
-881
-880
-879
-881
-883
-884
-888
-889
-888
-886
-884
-885
-886
-885
-888
-891
-893
-892
-890
-889
-885
-881
-881
-883
-886
-888
-891
-892
-890
-888
-886
-885
-884
-885
-887
-891
-892
-891
-890
-888
-887
-887
-887
-888
-889
-892
-894
-894
-893
-891
-889
-886
-884
-886
-889
-892
-894
-896
-894
-894
-891
-889
-888
-890
-893
-897
-897
-896
-896
-893
-890
-889
-889
-892
-894
-896
-897
-898
-897
-894
-891
-890
-892
-893
-895
-897
-899
-901
-901
-900
-896
-894
-893
-894
-898
-902
-903
-901
-898
-898
-895
-894
-894
-897
-900
-901
-902
-903
-900
-895
-893
-893
-894
-895
-897
-900
-901
-900
-899
-897
-894
-894
-894
-897
-900
-901
-901
-902
-901
-898
-896
-894
-896
-897
-900
-903
-904
-903
-900
-898
-897
-898
-896
-899
-902
-904
-905
-903
-900
-899
-897
-896
-895
-899
-902
-903
-904
-903
-900
-898
-896
-896
-896
-898
-900
-902
-904
-904
-903
-899
-897
-896
-897
-900
-901
-903
-904
-903
-902
-899
-896
-895
-891
-890
-890
-890
-890
-890
-890
-886
-883
-886
-887
-890
-891
-890
-888
-885
-883
-879
-877
-879
-883
-888
-891
-891
-891
-890
-890
-887
-887
-888
-892
-897
-899
-901
-900
-898
-896
-895
-896
-899
-901
-903
-906
-908
-907
-907
-904
-899
-897
-897
-898
-902
-905
-907
-909
-908
-906
-902
-900
-900
-901
-902
-904
-907
-909
-906
-904
-903
-901
-901
-902
-901
-903
-903
-902
-900
-898
-895
-894
-884
-863
-835
-805
-773
-739
-705
-678
-657
-685
-742
-792
-834
-862
-870
-872
-876
-884
-898
-914
-928
-941
-951
-955
-960
-963
-961
-958
-953
-949
-942
-932
-925
-922
-916
-911
-905
-901
-895
-892
-892
-894
-896
-896
-896
-896
-894
-891
-889
-887
-887
-889
-892
-892
-891
-889
-886
-884
-883
-881
-878
-881
-884
-885
-885
-884
-883
-880
-877
-876
-875
-877
-879
-880
-882
-882
-880
-876
-871
-869
-870
-871
-873
-873
-874
-873
-870
-867
-863
-861
-860
-861
-863
-865
-866
-865
-861
-856
-853
-852
-849
-847
-847
-846
-844
-842
-837
-833
-828
-826
-826
-827
-828
-830
-828
-825
-823
-819
-816
-814
-815
-816
-819
-819
-817
-816
-812
-811
-809
-809
-811
-815
-819
-823
-825
-828
-829
-830
-832
-834
-835
-838
-844
-848
-850
-852
-854
-852
-851
-855
-860
-865
-869
-871
-874
-874
-874
-875
-876
-879
-882
-886
-888
-889
-891
-890
-888
-884
-883
-885
-888
-891
-892
-894
-894
-893
-891
-889
-888
-889
-891
-893
-894
-897
-895
-892
-890
-886
-885
-885
-885
-887
-891
-893
-892
-890
-889
-887
-884
-885
-888
-891
-893
-896
-895
-894
-891
-888
-887
-888
-889
-891
-894
-896
-895
-894
-892
-889
-888
-889
-891
-896
-898
-900
-899
-896
-894
-891
-890
-891
-893
-894
-894
-897
-899
-897
-896
-893
-892
-892
-895
-896
-901
-901
-900
-899
-896
-895
-895
-894
-897
-900
-901
-902
-901
-900
-897
-893
-893
-894
-897
-900
-902
-902
-902
-901
-900
-899
-896
-896
-898
-900
-900
-899
-898
-897
-895
-894
-893
-894
-898
-900
-901
-901
-902
-900
-897
-895
-894
-899
-901
-901
-903
-902
-900
-899
-899
-897
-896
-895
-898
-902
-904
-904
-904
-904
-901
-898
-897
-898
-899
-900
-902
-903
-900
-898
-896
-894
-895
-897
-900
-902
-902
-904
-902
-899
-895
-894
-894
-897
-899
-900
-902
-903
-902
-900
-898
-896
-895
-895
-898
-898
-899
-897
-890
-886
-883
-881
-882
-882
-887
-892
-897
-897
-895
-892
-887
-883
-882
-883
-885
-884
-884
-882
-884
-883
-880
-879
-880
-883
-886
-889
-893
-897
-898
-895
-891
-889
-892
-894
-900
-903
-905
-905
-904
-901
-899
-900
-900
-901
-904
-906
-907
-905
-903
-905
-905
-904
-904
-905
-905
-906
-908
-908
-904
-898
-896
-895
-897
-901
-905
-908
-909
-908
-906
-899
-895
-893
-895
-897
-901
-903
-893
-873
-842
-805
-766
-729
-694
-667
-647
-661
-719
-772
-817
-849
-858
-860
-868
-882
-902
-923
-939
-952
-961
-964
-963
-959
-954
-951
-951
-950
-945
-936
-924
-915
-908
-903
-902
-901
-900
-900
-898
-896
-893
-890
-888
-887
-888
-889
-890
-892
-892
-890
-888
-884
-882
-880
-881
-883
-886
-886
-885
-885
-884
-882
-880
-879
-879
-878
-879
-882
-881
-880
-876
-873
-873
-870
-870
-873
-874
-874
-873
-871
-869
-865
-861
-861
-863
-865
-866
-869
-868
-864
-861
-857
-855
-855
-854
-854
-854
-855
-853
-850
-846
-842
-839
-836
-836
-838
-840
-841
-839
-835
-829
-823
-818
-817
-816
-817
-819
-821
-821
-820
-813
-810
-809
-811
-812
-814
-815
-815
-815
-817
-815
-815
-816
-818
-823
-829
-836
-839
-839
-840
-840
-840
-842
-847
-852
-857
-863
-865
-868
-869
-871
-871
-873
-876
-879
-881
-883
-885
-884
-881
-879
-879
-880
-881
-884
-888
-893
-893
-893
-892
-892
-888
-886
-887
-889
-892
-894
-896
-895
-892
-890
-887
-888
-889
-889
-892
-894
-894
-894
-892
-890
-889
-889
-890
-893
-897
-900
-898
-895
-891
-886
-884
-884
-885
-885
-888
-892
-892
-892
-891
-887
-886
-886
-887
-892
-895
-898
-898
-896
-894
-891
-889
-889
-892
-894
-896
-897
-897
-896
-894
-892
-890
-891
-893
-895
-898
-900
-902
-902
-900
-896
-892
-893
-896
-899
-900
-900
-899
-897
-894
-890
-890
-891
-894
-897
-899
-901
-901
-901
-900
-898
-896
-895
-896
-899
-901
-903
-903
-903
-898
-896
-893
-893
-896
-899
-900
-903
-903
-901
-900
-900
-901
-902
-902
-903
-903
-905
-907
-905
-901
-893
-893
-894
-894
-898
-901
-902
-903
-902
-898
-895
-896
-898
-899
-903
-905
-907
-907
-903
-901
-899
-896
-897
-900
-902
-904
-905
-905
-902
-901
-898
-897
-899
-903
-906
-909
-910
-908
-904
-900
-897
-894
-897
-901
-903
-904
-901
-894
-890
-888
-888
-886
-887
-890
-892
-894
-897
-897
-895
-891
-886
-884
-883
-885
-887
-888
-889
-890
-889
-887
-885
-884
-887
-889
-891
-894
-896
-898
-899
-900
-897
-897
-898
-898
-898
-901
-903
-903
-900
-899
-899
-897
-898
-901
-906
-907
-908
-907
-904
-902
-900
-901
-901
-904
-907
-907
-908
-904
-901
-898
-898
-900
-902
-904
-905
-907
-907
-904
-900
-897
-894
-893
-895
-900
-903
-904
-891
-868
-833
-800
-767
-737
-712
-693
-678
-705
-756
-800
-835
-857
-857
-858
-864
-875
-890
-908
-920
-932
-939
-940
-943
-946
-951
-952
-951
-952
-947
-938
-927
-916
-909
-904
-902
-902
-902
-901
-899
-896
-893
-891
-890
-891
-888
-888
-889
-889
-890
-890
-887
-883
-880
-880
-881
-885
-887
-887
-885
-883
-880
-878
-878
-879
-881
-881
-882
-883
-881
-878
-874
-873
-874
-873
-874
-877
-878
-878
-877
-873
-871
-866
-866
-867
-869
-871
-870
-870
-870
-868
-865
-860
-857
-855
-855
-856
-857
-856
-854
-851
-847
-844
-843
-843
-843
-842
-841
-840
-838
-834
-829
-827
-824
-825
-828
-829
-828
-826
-824
-822
-818
-816
-816
-817
-820
-821
-822
-823
-824
-824
-825
-826
-826
-827
-828
-831
-835
-838
-840
-841
-841
-841
-843
-848
-854
-859
-863
-867
-869
-868
-866
-866
-867
-871
-876
-881
-883
-883
-883
-882
-879
-878
-879
-881
-884
-887
-889
-888
-889
-887
-885
-884
-885
-887
-889
-889
-888
-888
-887
-885
-882
-880
-880
-881
-884
-887
-890
-890
-887
-884
-881
-879
-881
-884
-887
-890
-890
-889
-887
-885
-882
-880
-882
-885
-888
-891
-892
-891
-889
-886
-883
-884
-884
-887
-891
-894
-894
-892
-891
-889
-885
-884
-885
-887
-889
-891
-891
-892
-890
-888
-885
-884
-885
-889
-892
-894
-895
-894
-893
-891
-888
-887
-888
-890
-895
-898
-899
-897
-894
-891
-888
-888
-889
-893
-896
-898
-899
-900
-897
-892
-889
-889
-890
-892
-895
-896
-895
-894
-893
-890
-887
-886
-888
-891
-893
-895
-896
-895
-891
-888
-886
-887
-891
-893
-895
-896
-897
-896
-894
-892
-888
-889
-891
-893
-896
-895
-896
-897
-893
-890
-888
-889
-890
-893
-895
-896
-896
-895
-893
-890
-889
-887
-888
-890
-893
-894
-895
-894
-889
-886
-885
-887
-889
-892
-894
-894
-892
-890
-886
-880
-876
-875
-875
-878
-880
-880
-881
-882
-882
-878
-876
-877
-877
-876
-876
-878
-876
-873
-870
-870
-871
-871
-872
-875
-879
-882
-882
-882
-882
-880
-880
-882
-883
-887
-891
-892
-891
-891
-890
-888
-887
-888
-890
-893
-896
-897
-896
-894
-891
-889
-888
-888
-891
-894
-897
-899
-896
-894
-893
-890
-889
-891
-890
-892
-891
-890
-892
-892
-889
-886
-884
-884
-885
-887
-889
-889
-890
-886
-870
-844
-811
-779
-747
-713
-682
-658
-645
-674
-729
-777
-818
-843
-849
-855
-865
-878
-896
-912
-925
-935
-939
-944
-948
-951
-952
-948
-942
-933
-921
-909
-900
-894
-892
-892
-891
-888
-885
-881
-877
-876
-874
-875
-877
-879
-879
-879
-877
-874
-871
-868
-869
-870
-872
-874
-875
-873
-871
-869
-867
-865
-865
-867
-868
-869
-871
-872
-872
-871
-867
-863
-858
-857
-860
-862
-862
-860
-859
-858
-854
-851
-852
-853
-855
-855
-856
-855
-853
-849
-847
-843
-843
-843
-844
-846
-846
-843
-839
-834
-832
-828
-827
-827
-828
-828
-827
-823
-821
-817
-813
-809
-808
-808
-809
-810
-810
-809
-807
-802
-796
-793
-793
-793
-795
-797
-796
-795
-795
-792
-791
-792
-795
-800
-805
-809
-813
-815
-816
-817
-818
-819
-823
-828
-832
-837
-842
-844
-844
-845
-843
-846
-850
-853
-857
-861
-865
-866
-866
-865
-865
-866
-867
-870
-873
-874
-873
-872
-871
-867
-865
-867
-869
-871
-874
-876
-876
-876
-873
-870
-870
-868
-867
-870
-874
-876
-877
-876
-874
-870
-868
-868
-869
-871
-873
-875
-876
-875
-872
-870
-869
-869
-871
-873
-874
-876
-876
-875
-874
-870
-868
-869
-869
-870
-873
-877
-879
-876
-872
-869
-869
-870
-872
-874
-876
-878
-877
-877
-875
-872
-871
-871
-873
-876
-879
-880
-879
-879
-877
-873
-873
-873
-875
-878
-880
-882
-882
-881
-878
-875
-874
-875
-877
-880
-882
-883
-885
-884
-881
-878
-875
-874
-875
-879
-879
-880
-880
-879
-878
-875
-872
-874
-878
-881
-882
-883
-883
-881
-880
-877
-874
-876
-878
-881
-883
-884
-884
-882
-879
-876
-874
-874
-877
-881
-882
-883
-883
-881
-879
-877
-876
-877
-881
-885
-887
-884
-881
-878
-875
-873
-872
-873
-877
-879
-882
-883
-881
-879
-875
-871
-868
-865
-866
-867
-868
-867
-869
-869
-867
-867
-866
-866
-867
-867
-866
-865
-864
-861
-857
-855
-857
-860
-863
-865
-867
-869
-869
-867
-867
-869
-870
-874
-877
-878
-882
-883
-881
-880
-878
-875
-874
-875
-876
-880
-882
-883
-882
-882
-879
-877
-877
-878
-881
-885
-885
-885
-885
-882
-878
-877
-877
-878
-882
-885
-887
-886
-884
-881
-879
-877
-876
-878
-880
-879
-879
-880
-879
-879
-874
-860
-838
-808
-777
-744
-707
-674
-645
-624
-646
-705
-760
-805
-834
-840
-844
-851
-862
-878
-895
-909
-921
-931
-937
-938
-940
-939
-936
-931
-923
-912
-904
-898
-893
-888
-886
-884
-879
-874
-870
-867
-867
-869
-869
-871
-871
-869
-867
-865
-864
-861
-859
-860
-862
-867
-867
-866
-865
-862
-858
-857
-860
-861
-863
-863
-864
-861
-859
-857
-852
-850
-852
-856
-857
-858
-859
-860
-855
-851
-847
-846
-848
-851
-852
-853
-852
-850
-847
-843
-840
-839
-838
-840
-841
-844
-841
-840
-837
-832
-829
-828
-826
-827
-829
-829
-826
-825
-820
-814
-809
-807
-808
-808
-809
-808
-808
-807
-802
-799
-796
-793
-795
-797
-798
-799
-799
-798
-795
-793
-793
-794
-796
-799
-804
-807
-809
-813
-814
-812
-812
-818
-821
-825
-830
-835
-839
-841
-841
-840
-841
-843
-847
-852
-858
-861
-861
-860
-862
-860
-860
-860
-863
-868
-872
-872
-873
-873
-870
-869
-867
-866
-869
-871
-873
-876
-877
-874
-870
-869
-869
-867
-868
-871
-874
-877
-877
-874
-873
-868
-868
-868
-869
-871
-875
-876
-875
-876
-874
-871
-868
-870
-871
-873
-876
-877
-877
-876
-873
-870
-869
-870
-873
-875
-878
-878
-879
-877
-875
-871
-872
-873
-875
-877
-879
-881
-881
-880
-878
-876
-876
-875
-876
-879
-883
-885
-885
-883
-881
-879
-877
-878
-880
-883
-886
-887
-887
-884
-882
-880
-880
-880
-881
-884
-886
-888
-887
-882
-880
-877
-875
-878
-882
-885
-887
-888
-890
-887
-883
-881
-880
-883
-886
-886
-888
-891
-889
-886
-884
-882
-881
-882
-884
-886
-888
-890
-888
-884
-882
-882
-880
-882
-883
-886
-889
-890
-888
-886
-884
-884
-884
-883
-884
-887
-889
-890
-887
-886
-882
-877
-873
-873
-874
-876
-877
-878
-877
-874
-873
-872
-874
-874
-875
-875
-874
-872
-870
-868
-866
-864
-866
-870
-875
-878
-878
-878
-877
-877
-873
-873
-876
-880
-882
-885
-887
-887
-885
-883
-885
-887
-886
-887
-889
-892
-894
-894
-893
-888
-886
-885
-885
-887
-889
-892
-894
-894
-892
-890
-887
-887
-889
-891
-893
-894
-896
-897
-894
-891
-889
-887
-886
-887
-890
-890
-891
-889
-888
-886
-877
-862
-838
-811
-783
-752
-721
-697
-678
-678
-721
-770
-809
-843
-858
-857
-859
-865
-874
-884
-895
-906
-920
-929
-937
-945
-949
-949
-944
-939
-934
-927
-919
-914
-909
-907
-903
-897
-891
-888
-885
-882
-881
-884
-887
-887
-887
-887
-884
-880
-877
-876
-877
-880
-881
-883
-883
-881
-879
-875
-872
-871
-871
-872
-874
-877
-877
-876
-873
-871
-867
-866
-867
-870
-872
-875
-877
-873
-868
-865
-863
-863
-863
-863
-864
-867
-866
-865
-862
-858
-856
-853
-855
-858
-860
-858
-858
-855
-850
-843
-834
-841
-842
-844
-844
-843
-842
-838
-833
-831
-828
-825
-827
-828
-829
-829
-826
-823
-820
-817
-815
-816
-817
-818
-821
-820
-819
-818
-815
-813
-813
-815
-819
-823
-826
-830
-831
-832
-832
-830
-832
-834
-838
-845
-848
-854
-856
-857
-857
-856
-855
-857
-862
-867
-871
-873
-874
-874
-873
-871
-872
-875
-878
-880
-882
-884
-885
-883
-880
-881
-878
-879
-880
-884
-885
-886
-887
-885
-883
-879
-879
-879
-881
-884
-885
-887
-886
-883
-880
-879
-878
-879
-881
-882
-884
-884
-885
-883
-881
-879
-878
-877
-880
-883
-885
-886
-885
-884
-882
-879
-880
-882
-884
-886
-887
-888
-888
-885
-882
-880
-881
-882
-882
-885
-888
-888
-887
-886
-885
-883
-883
-883
-886
-888
-889
-890
-887
-885
-884
-882
-883
-885
-890
-892
-892
-892
-891
-890
-886
-885
-884
-884
-889
-891
-894
-895
-893
-891
-889
-886
-885
-887
-890
-892
-894
-894
-893
-890
-889
-885
-885
-888
-891
-894
-896
-895
-893
-888
-882
-877
-874
-874
-876
-879
-881
-881
-881
-877
-876
-876
-877
-877
-878
-878
-877
-876
-874
-869
-866
-867
-870
-872
-876
-880
-884
-885
-882
-879
-878
-879
-882
-885
-888
-890
-892
-893
-891
-889
-888
-888
-888
-892
-895
-897
-898
-897
-897
-895
-893
-892
-891
-893
-896
-900
-901
-899
-897
-894
-892
-891
-890
-894
-897
-896
-897
-897
-895
-894
-892
-889
-889
-891
-890
-892
-892
-892
-891
-888
-875
-855
-828
-801
-774
-744
-717
-697
-679
-696
-742
-786
-823
-851
-860
-860
-866
-873
-883
-895
-906
-917
-926
-932
-942
-951
-952
-949
-944
-939
-931
-922
-917
-912
-909
-906
-901
-897
-893
-888
-881
-881
-882
-885
-887
-888
-887
-885
-883
-879
-877
-878
-878
-880
-880
-883
-884
-881
-877
-874
-871
-871
-874
-876
-876
-877
-877
-876
-873
-870
-866
-866
-868
-870
-872
-874
-871
-871
-869
-864
-861
-862
-864
-864
-865
-866
-865
-863
-860
-856
-853
-853
-854
-857
-857
-858
-857
-853
-849
-846
-842
-841
-841
-841
-844
-843
-841
-837
-831
-827
-824
-823
-824
-826
-827
-826
-825
-822
-817
-813
-811
-814
-817
-819
-820
-819
-818
-817
-815
-814
-814
-815
-818
-823
-827
-831
-834
-834
-832
-836
-835
-839
-845
-849
-853
-858
-859
-859
-859
-857
-857
-859
-865
-870
-873
-876
-877
-875
-874
-874
-874
-876
-878
-882
-884
-884
-885
-884
-881
-879
-879
-881
-883
-883
-885
-887
-888
-885
-883
-881
-881
-880
-883
-886
-887
-887
-885
-881
-881
-879
-878
-879
-881
-885
-886
-886
-884
-882
-880
-877
-877
-879
-881
-883
-886
-885
-884
-882
-879
-878
-878
-881
-883
-885
-885
-887
-886
-886
-884
-881
-881
-882
-884
-887
-890
-891
-891
-889
-886
-883
-882
-885
-889
-891
-892
-893
-891
-889
-886
-884
-885
-886
-889
-891
-893
-894
-892
-888
-887
-884
-883
-886
-889
-891
-892
-888
-885
-882
-875
-871
-870
-871
-873
-875
-878
-878
-874
-870
-872
-872
-871
-871
-871
-869
-870
-867
-863
-857
-856
-857
-858
-864
-867
-872
-876
-878
-878
-876
-876
-878
-877
-880
-883
-886
-888
-889
-889
-890
-886
-885
-887
-889
-892
-897
-896
-895
-894
-892
-890
-890
-890
-894
-895
-897
-899
-898
-895
-893
-891
-890
-891
-893
-896
-898
-899
-897
-895
-892
-890
-890
-890
-889
-890
-893
-893
-893
-892
-883
-864
-836
-806
-775
-741
-708
-681
-657
-656
-702
-755
-800
-839
-855
-863
-869
-877
-892
-910
-924
-935
-945
-950
-952
-955
-954
-951
-948
-942
-930
-919
-910
-905
-900
-900
-898
-894
-892
-888
-883
-880
-880
-880
-882
-885
-885
-885
-884
-881
-878
-875
-873
-875
-877
-880
-881
-880
-877
-874
-872
-869
-868
-870
-872
-874
-875
-875
-873
-868
-865
-862
-863
-864
-866
-869
-869
-868
-865
-862
-859
-858
-856
-856
-859
-861
-861
-858
-857
-854
-850
-848
-846
-846
-848
-847
-849
-847
-844
-838
-835
-832
-831
-829
-830
-830
-830
-827
-825
-821
-816
-812
-810
-811
-812
-813
-813
-811
-809
-805
-800
-798
-798
-801
-804
-805
-805
-806
-804
-802
-802
-802
-805
-808
-814
-819
-824
-825
-826
-825
-827
-830
-833
-839
-845
-850
-855
-858
-856
-856
-856
-858
-859
-864
-869
-872
-874
-875
-874
-873
-871
-871
-873
-875
-878
-881
-882
-882
-878
-876
-875
-874
-874
-878
-881
-883
-883
-882
-880
-877
-874
-873
-874
-876
-878
-880
-880
-880
-878
-874
-873
-871
-872
-874
-879
-881
-881
-880
-878
-875
-873
-873
-876
-878
-880
-883
-882
-882
-881
-878
-876
-874
-878
-881
-883
-885
-885
-883
-882
-880
-878
-877
-878
-882
-886
-887
-887
-885
-883
-880
-879
-879
-881
-884
-887
-888
-889
-886
-884
-882
-881
-881
-883
-888
-890
-889
-889
-889
-886
-884
-882
-882
-884
-887
-889
-891
-890
-888
-886
-883
-881
-881
-884
-887
-890
-890
-889
-886
-881
-876
-870
-869
-868
-870
-871
-871
-874
-873
-869
-866
-866
-868
-869
-871
-871
-871
-866
-862
-858
-852
-851
-856
-859
-864
-867
-869
-871
-871
-869
-870
-872
-874
-876
-879
-882
-882
-883
-880
-879
-880
-883
-883
-887
-890
-891
-892
-892
-890
-888
-885
-885
-884
-887
-891
-892
-894
-892
-889
-888
-886
-885
-886
-890
-891
-892
-893
-892
-890
-886
-883
-884
-884
-884
-888
-889
-890
-889
-887
-885
-875
-855
-829
-797
-764
-728
-691
-660
-635
-638
-688
-749
-800
-840
-855
-859
-864
-873
-888
-906
-920
-933
-943
-948
-951
-951
-950
-946
-940
-932
-922
-912
-905
-900
-896
-894
-889
-885
-881
-878
-874
-873
-875
-877
-878
-878
-878
-876
-873
-869
-867
-867
-868
-871
-873
-874
-873
-869
-867
-861
-859
-862
-863
-864
-865
-868
-868
-866
-863
-859
-856
-857
-858
-859
-861
-863
-861
-858
-855
-853
-851
-851
-851
-853
-853
-854
-853
-850
-847
-843
-841
-839
-839
-841
-842
-842
-839
-837
-832
-828
-825
-826
-827
-827
-827
-825
-824
-819
-814
-811
-807
-804
-805
-808
-809
-809
-806
-803
-798
-795
-793
-793
-796
-797
-798
-799
-798
-797
-794
-792
-792
-796
-800
-804
-808
-812
-816
-815
-815
-815
-818
-822
-828
-834
-840
-842
-843
-845
-844
-842
-845
-849
-853
-857
-861
-864
-865
-864
-862
-862
-863
-865
-867
-872
-875
-876
-874
-870
-869
-866
-867
-869
-872
-876
-877
-879
-877
-874
-871
-868
-867
-869
-872
-874
-876
-876
-874
-872
-870
-869
-868
-870
-874
-875
-876
-876
-875
-873
-871
-868
-870
-872
-873
-876
-877
-876
-875
-873
-870
-869
-870
-872
-875
-876
-878
-879
-879
-875
-872
-870
-870
-873
-876
-878
-882
-882
-881
-879
-876
-874
-874
-877
-882
-883
-883
-883
-883
-880
-878
-876
-877
-881
-883
-885
-886
-885
-883
-880
-878
-877
-878
-881
-884
-885
-886
-885
-883
-880
-878
-877
-877
-879
-883
-885
-886
-886
-883
-880
-877
-878
-879
-881
-884
-886
-887
-887
-883
-880
-878
-875
-874
-874
-872
-871
-869
-869
-867
-865
-863
-861
-862
-867
-872
-877
-877
-874
-867
-863
-858
-855
-854
-857
-861
-866
-869
-868
-867
-865
-863
-864
-866
-872
-878
-881
-880
-880
-877
-874
-872
-874
-879
-883
-886
-887
-887
-887
-884
-882
-881
-881
-881
-885
-887
-889
-890
-888
-885
-883
-881
-880
-882
-885
-887
-887
-887
-888
-886
-882
-881
-882
-882
-884
-887
-889
-888
-884
-881
-878
-877
-878
-880
-870
-851
-821
-787
-748
-708
-671
-646
-630
-657
-723
-781
-824
-849
-852
-851
-855
-864
-883
-903
-920
-935
-943
-945
-943
-940
-935
-932
-931
-929
-921
-913
-907
-900
-892
-885
-878
-874
-873
-873
-876
-878
-878
-877
-875
-871
-868
-866
-865
-867
-869
-871
-872
-871
-869
-865
-860
-859
-860
-863
-866
-867
-868
-867
-864
-860
-857
-856
-857
-859
-861
-863
-862
-862
-859
-855
-852
-850
-849
-852
-855
-857
-856
-854
-851
-847
-844
-843
-844
-845
-845
-844
-847
-844
-841
-837
-835
-832
-832
-833
-836
-835
-833
-831
-826
-822
-818
-815
-814
-815
-816
-816
-814
-812
-809
-804
-802
-801
-801
-803
-804
-805
-804
-803
-800
-796
-794
-796
-797
-799
-801
-805
-807
-809
-808
-808
-809
-810
-814
-819
-824
-828
-832
-833
-833
-832
-833
-837
-841
-846
-851
-856
-858
-859
-857
-856
-856
-858
-861
-865
-868
-871
-872
-871
-868
-865
-865
-864
-866
-870
-874
-874
-874
-873
-871
-867
-864
-864
-866
-870
-873
-873
-873
-873
-869
-867
-866
-864
-866
-869
-871
-872
-872
-871
-867
-864
-864
-865
-867
-868
-871
-874
-874
-873
-870
-867
-866
-866
-868
-871
-872
-874
-874
-873
-871
-868
-867
-868
-871
-874
-875
-875
-875
-872
-869
-866
-866
-867
-871
-873
-875
-876
-875
-875
-872
-870
-868
-870
-873
-876
-877
-878
-878
-876
-874
-872
-872
-873
-875
-877
-880
-881
-881
-879
-876
-872
-872
-873
-876
-878
-879
-881
-882
-880
-878
-873
-869
-870
-873
-876
-878
-880
-880
-877
-875
-873
-873
-874
-876
-880
-882
-881
-879
-876
-872
-869
-866
-865
-863
-864
-866
-866
-867
-865
-864
-860
-862
-868
-871
-871
-871
-868
-863
-859
-855
-853
-854
-857
-862
-864
-862
-862
-863
-861
-859
-859
-862
-867
-872
-874
-875
-875
-873
-873
-873
-874
-875
-879
-882
-884
-885
-884
-882
-881
-880
-878
-879
-882
-885
-886
-887
-888
-888
-887
-883
-881
-880
-880
-881
-883
-885
-885
-883
-880
-879
-878
-878
-879
-880
-880
-881
-881
-878
-873
-873
-875
-866
-850
-824
-795
-764
-728
-696
-672
-653
-667
-722
-775
-817
-847
-855
-853
-853
-857
-867
-884
-897
-912
-925
-933
-939
-940
-938
-931
-926
-924
-920
-914
-907
-902
-898
-894
-887
-881
-875
-870
-871
-874
-876
-877
-878
-876
-874
-869
-868
-870
-871
-871
-871
-872
-872
-870
-865
-862
-859
-857
-858
-860
-861
-866
-865
-864
-861
-859
-856
-856
-858
-860
-861
-863
-864
-861
-857
-853
-849
-848
-848
-851
-854
-856
-856
-854
-850
-848
-843
-842
-843
-845
-848
-848
-846
-844
-841
-836
-831
-831
-830
-832
-834
-836
-835
-830
-826
-821
-818
-817
-815
-814
-813
-815
-816
-815
-811
-807
-805
-804
-803
-806
-809
-810
-808
-806
-806
-802
-799
-800
-803
-806
-811
-813
-815
-815
-815
-815
-816
-820
-824
-829
-832
-835
-838
-838
-838
-838
-840
-843
-847
-852
-857
-859
-860
-858
-858
-857
-857
-858
-860
-863
-867
-869
-870
-870
-871
-867
-864
-865
-868
-870
-873
-873
-872
-871
-869
-865
-863
-865
-867
-869
-872
-872
-871
-868
-865
-863
-864
-866
-869
-871
-872
-873
-871
-871
-868
-864
-862
-862
-865
-869
-873
-876
-875
-873
-867
-865
-866
-868
-870
-873
-876
-876
-874
-872
-870
-868
-867
-868
-872
-875
-877
-878
-876
-874
-871
-870
-870
-871
-873
-875
-877
-880
-879
-878
-876
-874
-874
-875
-876
-876
-878
-881
-881
-879
-875
-874
-875
-878
-881
-883
-885
-883
-883
-881
-876
-874
-873
-875
-882
-886
-885
-886
-885
-882
-879
-879
-878
-879
-881
-883
-884
-884
-883
-881
-879
-879
-880
-880
-882
-885
-887
-888
-887
-883
-879
-878
-878
-878
-882
-886
-889
-889
-889
-885
-881
-878
-878
-876
-874
-871
-870
-871
-871
-871
-870
-868
-866
-869
-874
-875
-877
-877
-873
-868
-863
-859
-859
-860
-863
-868
-872
-871
-871
-868
-866
-866
-867
-871
-875
-880
-883
-882
-881
-879
-877
-874
-877
-881
-885
-887
-888
-891
-889
-886
-884
-881
-882
-885
-888
-889
-889
-889
-885
-883
-882
-881
-882
-885
-889
-890
-889
-887
-885
-883
-880
-879
-881
-886
-890
-892
-893
-890
-885
-880
-876
-873
-876
-877
-868
-851
-823
-791
-756
-721
-691
-670
-655
-682
-741
-790
-826
-851
-855
-851
-854
-861
-877
-896
-911
-924
-931
-933
-935
-934
-933
-932
-931
-931
-928
-922
-912
-905
-897
-889
-884
-883
-882
-882
-885
-885
-884
-881
-874
-871
-870
-870
-870
-873
-875
-877
-877
-874
-869
-867
-866
-866
-867
-869
-870
-869
-869
-867
-865
-863
-860
-859
-860
-862
-864
-865
-864
-861
-859
-857
-855
-854
-853
-857
-859
-861
-861
-857
-853
-850
-850
-852
-854
-853
-853
-852
-851
-846
-842
-839
-837
-836
-837
-838
-839
-840
-838
-834
-830
-825
-821
-821
-821
-821
-822
-822
-820
-817
-813
-810
-807
-806
-808
-809
-810
-811
-811
-809
-806
-803
-802
-804
-805
-809
-810
-812
-814
-813
-809
-810
-812
-813
-816
-822
-828
-833
-835
-835
-837
-837
-837
-840
-846
-850
-855
-859
-860
-859
-856
-856
-857
-859
-862
-867
-870
-872
-871
-870
-868
-867
-867
-869
-873
-875
-876
-875
-874
-874
-871
-869
-868
-870
-873
-877
-878
-876
-877
-874
-872
-869
-869
-870
-870
-872
-874
-874
-874
-873
-871
-869
-870
-870
-873
-875
-877
-878
-876
-874
-872
-870
-869
-870
-872
-876
-879
-880
-879
-879
-876
-875
-874
-874
-874
-875
-877
-878
-879
-878
-876
-875
-876
-878
-880
-880
-880
-881
-881
-879
-876
-874
-875
-877
-880
-884
-887
-887
-884
-881
-879
-878
-879
-882
-883
-886
-888
-887
-886
-883
-878
-878
-878
-881
-885
-890
-892
-890
-888
-884
-880
-877
-876
-879
-881
-886
-889
-887
-883
-882
-881
-878
-878
-881
-885
-887
-888
-887
-886
-883
-881
-879
-879
-882
-885
-886
-887
-887
-885
-883
-881
-881
-882
-885
-888
-889
-891
-888
-883
-881
-880
-881
-883
-886
-887
-890
-890
-889
-886
-882
-879
-879
-880
-881
-882
-882
-879
-873
-868
-866
-865
-867
-869
-870
-873
-878
-880
-880
-877
-872
-867
-864
-864
-865
-865
-866
-870
-872
-873
-871
-867
-867
-869
-873
-876
-879
-881
-883
-882
-879
-876
-876
-877
-879
-884
-889
-891
-891
-888
-886
-883
-883
-884
-887
-890
-890
-891
-890
-888
-886
-885
-885
-887
-889
-891
-892
-893
-892
-890
-887
-886
-886
-888
-888
-889
-892
-893
-890
-886
-883
-880
-880
-880
-882
-886
-882
-866
-839
-805
-772
-737
-702
-676
-657
-652
-699
-757
-798
-831
-844
-847
-850
-859
-876
-900
-915
-928
-936
-940
-941
-939
-939
-938
-941
-943
-938
-931
-920
-909
-901
-894
-890
-887
-887
-886
-885
-884
-880
-877
-875
-874
-874
-876
-877
-878
-878
-878
-877
-873
-870
-871
-872
-873
-875
-877
-876
-874
-871
-869
-866
-865
-864
-865
-868
-869
-867
-867
-867
-862
-859
-858
-860
-862
-866
-868
-866
-863
-862
-858
-855
-855
-855
-856
-857
-857
-855
-854
-853
-848
-844
-841
-842
-844
-845
-844
-843
-843
-840
-836
-831
-830
-830
-829
-828
-829
-827
-825
-822
-820
-815
-813
-814
-815
-816
-817
-815
-812
-808
-807
-803
-803
-804
-807
-809
-810
-812
-812
-811
-809
-809
-813
-820
-824
-828
-831
-831
-830
-831
-833
-833
-837
-840
-844
-848
-852
-855
-857
-857
-856
-857
-859
-863
-868
-871
-874
-875
-876
-875
-872
-872
-875
-876
-878
-881
-883
-884
-882
-880
-876
-876
-877
-877
-881
-885
-885
-885
-883
-881
-879
-879
-879
-881
-883
-884
-885
-885
-882
-879
-876
-876
-878
-881
-884
-886
-887
-886
-885
-881
-878
-879
-880
-880
-884
-885
-886
-886
-884
-880
-877
-876
-880
-885
-888
-889
-889
-890
-888
-883
-881
-880
-884
-887
-889
-891
-892
-892
-893
-888
-882
-881
-883
-886
-891
-894
-894
-892
-888
-885
-883
-883
-885
-888
-893
-895
-895
-894
-891
-888
-887
-887
-889
-890
-893
-895
-895
-895
-894
-891
-888
-887
-889
-893
-896
-898
-897
-895
-890
-886
-886
-887
-891
-893
-896
-899
-901
-898
-893
-891
-890
-890
-889
-892
-895
-897
-898
-896
-893
-890
-887
-887
-891
-894
-895
-899
-899
-896
-894
-892
-889
-890
-892
-894
-896
-897
-896
-895
-893
-889
-887
-884
-883
-886
-888
-889
-888
-887
-881
-880
-882
-883
-886
-889
-887
-885
-883
-881
-876
-873
-873
-875
-879
-883
-885
-884
-886
-886
-885
-884
-884
-887
-891
-893
-894
-896
-895
-893
-893
-892
-894
-896
-898
-902
-904
-903
-901
-899
-896
-894
-895
-898
-901
-902
-903
-903
-904
-902
-898
-895
-896
-899
-900
-901
-901
-902
-902
-901
-900
-897
-895
-898
-898
-898
-898
-897
-896
-894
-895
-893
-880
-859
-833
-806
-774
-744
-715
-692
-678
-707
-757
-802
-840
-867
-872
-871
-874
-877
-890
-906
-919
-933
-945
-950
-954
-957
-956
-951
-945
-943
-939
-933
-928
-923
-918
-914
-908
-902
-897
-893
-893
-891
-893
-896
-896
-896
-897
-895
-894
-891
-888
-887
-887
-888
-891
-892
-890
-888
-883
-881
-883
-883
-886
-886
-887
-886
-883
-881
-877
-875
-874
-877
-880
-881
-883
-885
-882
-877
-874
-872
-871
-872
-874
-876
-877
-876
-875
-872
-869
-866
-864
-866
-866
-866
-866
-865
-861
-857
-854
-852
-851
-850
-851
-852
-851
-850
-846
-841
-836
-833
-834
-835
-837
-839
-837
-834
-831
-829
-824
-822
-823
-824
-825
-826
-827
-825
-824
-822
-820
-819
-821
-826
-832
-835
-836
-837
-835
-835
-835
-836
-838
-843
-849
-854
-857
-858
-858
-859
-858
-858
-861
-868
-874
-878
-878
-879
-879
-878
-878
-879
-882
-884
-887
-891
-892
-890
-888
-886
-885
-884
-886
-889
-893
-896
-897
-895
-892
-889
-887
-887
-888
-889
-893
-894
-894
-891
-889
-885
-885
-887
-887
-887
-888
-891
-892
-892
-889
-887
-887
-886
-886
-890
-893
-893
-893
-892
-889
-888
-887
-888
-890
-893
-896
-896
-895
-895
-892
-890
-889
-890
-891
-894
-894
-897
-898
-897
-894
-892
-889
-889
-891
-895
-897
-899
-899
-898
-895
-892
-892
-893
-894
-897
-900
-901
-902
-899
-895
-893
-893
-894
-899
-901
-904
-905
-902
-900
-900
-897
-895
-896
-898
-900
-903
-905
-905
-905
-902
-898
-897
-897
-898
-899
-900
-902
-903
-902
-898
-897
-899
-900
-900
-901
-902
-903
-904
-902
-901
-898
-896
-897
-900
-901
-903
-904
-904
-903
-901
-899
-899
-898
-900
-902
-902
-900
-897
-892
-887
-884
-885
-887
-890
-893
-893
-893
-893
-892
-890
-888
-889
-885
-884
-885
-886
-884
-884
-883
-883
-883
-883
-885
-886
-889
-891
-892
-892
-894
-892
-893
-893
-893
-896
-898
-900
-903
-902
-901
-901
-900
-900
-901
-904
-907
-908
-908
-906
-902
-899
-900
-900
-903
-905
-905
-906
-906
-904
-901
-899
-898
-900
-903
-904
-905
-907
-906
-905
-903
-900
-896
-894
-894
-894
-897
-898
-902
-900
-881
-856
-825
-794
-762
-729
-699
-677
-664
-698
-752
-797
-835
-858
-864
-870
-878
-890
-910
-925
-936
-947
-952
-955
-958
-961
-959
-956
-953
-948
-937
-925
-917
-912
-908
-906
-904
-901
-898
-896
-892
-889
-889
-891
-892
-893
-894
-894
-893
-889
-887
-884
-884
-884
-885
-887
-887
-887
-885
-882
-880
-880
-880
-881
-882
-883
-884
-884
-881
-878
-874
-871
-870
-870
-873
-876
-877
-877
-875
-873
-870
-867
-865
-868
-870
-870
-870
-870
-868
-864
-860
-860
-860
-858
-857
-858
-859
-858
-856
-851
-847
-843
-841
-842
-843
-844
-844
-841
-837
-832
-826
-822
-820
-821
-821
-823
-823
-822
-821
-816
-812
-810
-811
-810
-811
-814
-815
-814
-812
-812
-810
-809
-812
-817
-822
-826
-830
-833
-835
-834
-834
-835
-839
-844
-851
-853
-858
-862
-864
-863
-861
-861
-864
-867
-872
-877
-880
-881
-881
-879
-878
-877
-879
-883
-884
-887
-890
-891
-889
-884
-884
-882
-883
-885
-889
-893
-893
-892
-889
-887
-885
-884
-885
-887
-889
-889
-892
-893
-890
-887
-885
-883
-883
-885
-887
-890
-890
-890
-889
-886
-884
-884
-883
-885
-886
-889
-892
-891
-890
-887
-885
-885
-887
-888
-889
-890
-891
-891
-888
-886
-886
-887
-888
-890
-891
-894
-895
-895
-893
-890
-888
-889
-891
-893
-896
-897
-897
-895
-893
-891
-890
-891
-893
-897
-900
-900
-900
-899
-895
-892
-891
-891
-894
-897
-899
-899
-899
-899
-896
-893
-894
-896
-897
-896
-898
-900
-901
-901
-897
-895
-894
-895
-896
-898
-900
-901
-902
-901
-897
-894
-893
-894
-896
-899
-903
-903
-903
-899
-897
-894
-893
-893
-897
-899
-900
-900
-900
-901
-898
-895
-894
-895
-895
-895
-898
-898
-898
-894
-888
-882
-879
-882
-884
-886
-887
-887
-886
-887
-887
-887
-885
-885
-884
-884
-886
-885
-883
-879
-877
-878
-880
-883
-884
-886
-888
-889
-888
-888
-887
-888
-888
-889
-890
-892
-894
-896
-898
-900
-899
-898
-897
-898
-900
-902
-903
-903
-904
-902
-900
-899
-897
-898
-900
-903
-906
-907
-906
-903
-901
-900
-898
-898
-901
-902
-904
-905
-903
-899
-897
-895
-894
-892
-892
-896
-898
-898
-898
-892
-874
-848
-816
-781
-748
-713
-682
-658
-647
-687
-745
-794
-836
-856
-862
-869
-880
-894
-913
-927
-941
-950
-957
-959
-959
-958
-957
-955
-952
-942
-930
-922
-914
-908
-905
-901
-898
-895
-894
-892
-889
-885
-883
-884
-886
-887
-889
-887
-885
-883
-880
-879
-880
-880
-883
-885
-886
-886
-885
-881
-877
-874
-872
-874
-877
-879
-881
-880
-877
-874
-870
-866
-867
-870
-873
-874
-873
-872
-870
-867
-864
-863
-863
-863
-865
-868
-865
-866
-864
-860
-857
-854
-853
-854
-855
-856
-855
-853
-849
-844
-842
-839
-837
-838
-838
-837
-836
-834
-832
-828
-824
-820
-818
-816
-817
-818
-818
-817
-814
-810
-808
-804
-802
-802
-803
-807
-808
-809
-808
-805
-804
-804
-806
-811
-816
-820
-822
-826
-826
-825
-827
-831
-835
-841
-846
-851
-855
-857
-856
-857
-856
-858
-862
-867
-873
-876
-880
-880
-879
-878
-876
-877
-878
-881
-886
-889
-887
-885
-884
-881
-880
-880
-884
-887
-890
-892
-890
-889
-887
-886
-883
-883
-885
-887
-889
-888
-886
-886
-884
-883
-883
-883
-885
-888
-889
-889
-890
-888
-886
-883
-881
-882
-885
-887
-887
-889
-890
-890
-888
-886
-884
-883
-886
-888
-891
-893
-894
-893
-889
-885
-884
-886
-887
-888
-891
-893
-893
-891
-889
-888
-887
-886
-888
-892
-894
-896
-895
-892
-890
-889
-888
-889
-893
-895
-897
-897
-897
-895
-893
-891
-891
-892
-893
-894
-896
-898
-897
-897
-895
-893
-893
-894
-896
-897
-898
-900
-899
-895
-894
-894
-892
-893
-894
-897
-898
-900
-900
-900
-896
-893
-893
-893
-895
-898
-900
-901
-899
-897
-894
-890
-891
-893
-896
-899
-900
-902
-901
-898
-894
-892
-892
-893
-896
-898
-899
-901
-901
-900
-895
-893
-893
-892
-893
-892
-890
-888
-887
-885
-881
-880
-878
-878
-883
-888
-892
-892
-890
-885
-879
-876
-874
-874
-876
-878
-881
-883
-884
-882
-881
-881
-880
-880
-883
-887
-891
-894
-895
-891
-887
-886
-889
-893
-898
-901
-903
-903
-901
-899
-897
-894
-893
-896
-900
-901
-902
-904
-904
-900
-897
-896
-898
-901
-903
-903
-902
-903
-903
-901
-899
-897
-896
-897
-899
-900
-901
-900
-897
-892
-891
-890
-889
-891
-893
-883
-863
-834
-798
-761
-725
-691
-668
-654
-686
-750
-800
-838
-863
-864
-863
-868
-878
-898
-918
-934
-948
-957
-959
-958
-954
-950
-947
-947
-947
-942
-935
-926
-918
-909
-902
-899
-899
-898
-897
-899
-898
-896
-893
-890
-887
-883
-885
-887
-889
-892
-892
-889
-887
-885
-881
-879
-880
-884
-887
-888
-889
-886
-883
-880
-877
-875
-877
-880
-881
-883
-884
-882
-880
-877
-873
-871
-871
-874
-878
-878
-878
-876
-873
-870
-866
-866
-866
-867
-870
-869
-869
-868
-864
-861
-858
-857
-856
-856
-856
-857
-857
-854
-850
-846
-843
-841
-840
-841
-841
-840
-839
-837
-832
-828
-824
-823
-823
-824
-826
-827
-825
-823
-819
-818
-816
-815
-816
-819
-822
-825
-826
-827
-826
-827
-827
-829
-831
-837
-842
-845
-848
-850
-850
-850
-852
-855
-858
-862
-868
-872
-874
-876
-876
-874
-873
-875
-878
-883
-888
-891
-892
-890
-889
-887
-885
-887
-889
-891
-894
-896
-896
-894
-892
-892
-892
-893
-894
-896
-899
-900
-899
-897
-894
-893
-890
-891
-893
-896
-896
-896
-897
-893
-890
-888
-889
-890
-895
-897
-900
-900
-897
-893
-891
-888
-887
-891
-895
-896
-896
-897
-895
-893
-890
-889
-890
-892
-894
-896
-898
-898
-898
-898
-895
-893
-893
-893
-895
-898
-899
-900
-901
-899
-896
-894
-896
-896
-899
-901
-900
-902
-904
-901
-898
-896
-895
-896
-897
-900
-902
-905
-906
-905
-901
-898
-898
-898
-901
-904
-905
-906
-906
-903
-901
-898
-897
-900
-903
-906
-908
-907
-904
-903
-900
-899
-899
-900
-902
-906
-909
-909
-907
-905
-903
-901
-901
-903
-906
-907
-906
-906
-907
-905
-900
-899
-898
-900
-903
-907
-909
-909
-908
-905
-903
-901
-901
-903
-904
-906
-907
-909
-908
-903
-899
-897
-894
-892
-892
-894
-896
-896
-896
-894
-890
-890
-893
-896
-897
-897
-893
-891
-890
-887
-882
-878
-881
-884
-888
-894
-894
-894
-896
-894
-891
-890
-893
-899
-901
-902
-901
-901
-901
-899
-897
-900
-902
-905
-908
-910
-910
-908
-908
-906
-904
-903
-904
-906
-908
-911
-912
-912
-910
-907
-906
-905
-903
-904
-908
-909
-910
-909
-908
-905
-904
-902
-902
-905
-908
-908
-906
-904
-902
-897
-898
-898
-887
-869
-844
-815
-783
-751
-722
-698
-679
-707
-762
-810
-848
-873
-877
-872
-873
-880
-893
-910
-922
-936
-948
-955
-958
-958
-958
-955
-951
-951
-947
-942
-935
-929
-923
-917
-911
-905
-900
-899
-898
-898
-899
-901
-901
-900
-899
-897
-892
-892
-893
-895
-897
-898
-897
-894
-890
-886
-885
-885
-886
-889
-891
-891
-891
-888
-884
-881
-878
-878
-881
-883
-887
-888
-888
-884
-881
-877
-874
-874
-875
-877
-882
-883
-884
-881
-878
-874
-870
-868
-867
-870
-873
-871
-870
-869
-865
-862
-858
-856
-856
-857
-857
-856
-855
-851
-847
-844
-842
-841
-840
-840
-840
-839
-836
-834
-830
-827
-828
-828
-830
-833
-832
-832
-831
-829
-824
-822
-822
-824
-828
-831
-834
-835
-835
-836
-835
-834
-835
-838
-843
-849
-853
-856
-858
-859
-858
-857
-859
-863
-868
-871
-875
-879
-880
-881
-880
-879
-879
-880
-883
-888
-891
-893
-892
-890
-889
-887
-888
-891
-894
-895
-896
-896
-896
-893
-890
-888
-888
-890
-894
-897
-899
-899
-897
-895
-891
-888
-889
-890
-892
-894
-895
-896
-894
-891
-888
-886
-886
-888
-891
-893
-895
-895
-894
-891
-888
-887
-888
-890
-892
-894
-895
-894
-894
-893
-891
-889
-889
-890
-892
-895
-897
-897
-898
-895
-892
-891
-892
-893
-897
-900
-898
-898
-897
-894
-892
-893
-893
-895
-899
-903
-905
-904
-901
-899
-896
-895
-895
-898
-899
-901
-901
-902
-901
-899
-896
-895
-895
-896
-900
-903
-904
-905
-901
-898
-898
-897
-896
-897
-898
-901
-902
-902
-901
-900
-899
-896
-897
-901
-902
-904
-904
-903
-901
-898
-896
-895
-896
-897
-900
-904
-904
-904
-903
-900
-897
-896
-898
-900
-903
-904
-906
-907
-903
-900
-898
-898
-897
-898
-900
-903
-902
-899
-892
-886
-881
-881
-884
-886
-888
-892
-893
-895
-892
-888
-887
-886
-883
-881
-883
-883
-882
-882
-880
-880
-880
-883
-885
-887
-889
-891
-891
-891
-891
-892
-893
-891
-891
-894
-896
-897
-899
-900
-898
-896
-897
-896
-897
-899
-902
-904
-904
-903
-901
-899
-900
-900
-900
-904
-906
-905
-905
-903
-901
-899
-898
-898
-899
-900
-902
-904
-905
-904
-903
-901
-899
-898
-896
-895
-895
-894
-894
-891
-876
-850
-818
-786
-753
-721
-694
-672
-662
-700
-755
-798
-834
-856
-861
-867
-874
-886
-907
-921
-932
-941
-947
-950
-953
-956
-955
-955
-953
-946
-936
-925
-916
-911
-907
-906
-905
-901
-897
-893
-890
-888
-886
-885
-886
-888
-889
-891
-889
-887
-884
-881
-879
-880
-883
-884
-884
-884
-884
-880
-877
-875
-874
-874
-875
-877
-878
-879
-877
-876
-873
-871
-869
-870
-870
-872
-876
-877
-875
-871
-868
-864
-862
-864
-864
-865
-867
-866
-865
-863
-860
-854
-853
-854
-854
-856
-855
-855
-852
-848
-844
-841
-839
-837
-838
-838
-838
-837
-834
-829
-825
-822
-821
-819
-819
-821
-821
-821
-820
-817
-811
-808
-806
-805
-807
-810
-811
-810
-809
-808
-806
-805
-806
-810
-814
-820
-825
-829
-831
-832
-831
-832
-835
-838
-844
-847
-849
-853
-854
-855
-856
-856
-858
-862
-867
-872
-876
-879
-879
-878
-875
-874
-874
-875
-878
-880
-881
-882
-882
-880
-879
-877
-877
-881
-883
-885
-886
-887
-887
-884
-882
-881
-881
-882
-885
-887
-887
-887
-884
-881
-879
-877
-878
-879
-883
-887
-890
-890
-887
-883
-879
-878
-879
-880
-882
-885
-886
-885
-883
-881
-881
-881
-880
-881
-884
-887
-888
-887
-886
-884
-882
-882
-883
-885
-887
-888
-889
-889
-887
-885
-884
-883
-884
-886
-888
-891
-893
-894
-892
-891
-889
-886
-885
-887
-889
-891
-892
-892
-890
-887
-885
-885
-886
-889
-891
-893
-897
-896
-893
-889
-886
-889
-889
-890
-894
-895
-895
-895
-893
-891
-889
-887
-887
-891
-894
-896
-896
-895
-894
-892
-890
-891
-892
-894
-895
-894
-893
-893
-890
-888
-886
-885
-887
-889
-892
-894
-894
-893
-893
-892
-888
-888
-891
-892
-893
-896
-896
-895
-892
-890
-889
-888
-888
-892
-896
-896
-895
-893
-888
-883
-879
-876
-878
-881
-882
-884
-884
-884
-884
-883
-882
-881
-880
-878
-876
-875
-875
-873
-870
-867
-867
-871
-874
-877
-879
-882
-881
-879
-880
-880
-881
-883
-884
-885
-888
-891
-891
-889
-887
-887
-887
-889
-891
-895
-897
-898
-898
-896
-893
-890
-889
-889
-893
-896
-896
-896
-898
-897
-894
-890
-890
-890
-892
-894
-896
-896
-895
-895
-892
-889
-888
-889
-890
-889
-889
-890
-888
-887
-885
-874
-854
-828
-796
-763
-729
-694
-667
-643
-650
-706
-760
-806
-840
-853
-857
-864
-874
-890
-909
-921
-934
-943
-947
-949
-950
-950
-947
-942
-937
-930
-918
-910
-905
-902
-897
-894
-891
-887
-882
-879
-876
-877
-880
-882
-883
-882
-881
-878
-875
-872
-871
-872
-874
-876
-877
-878
-878
-875
-872
-868
-866
-866
-867
-869
-871
-872
-871
-866
-863
-861
-860
-860
-864
-867
-865
-864
-863
-860
-857
-855
-854
-856
-858
-861
-861
-860
-857
-854
-852
-849
-848
-849
-850
-851
-851
-850
-847
-843
-839
-837
-835
-835
-836
-834
-833
-829
-825
-821
-817
-814
-812
-813
-813
-813
-813
-812
-809
-805
-800
-798
-798
-798
-799
-801
-800
-799
-798
-796
-795
-796
-797
-800
-803
-807
-811
-813
-813
-813
-814
-816
-820
-825
-830
-835
-839
-841
-842
-841
-841
-843
-848
-852
-856
-861
-864
-865
-863
-863
-863
-863
-864
-868
-870
-875
-878
-877
-875
-873
-872
-871
-873
-877
-879
-880
-880
-880
-878
-874
-873
-873
-873
-877
-881
-881
-880
-880
-878
-876
-876
-874
-874
-876
-878
-877
-878
-877
-873
-871
-869
-869
-872
-876
-878
-880
-881
-879
-876
-871
-869
-870
-873
-876
-878
-879
-879
-878
-876
-874
-871
-872
-874
-877
-879
-881
-881
-881
-879
-878
-875
-873
-875
-878
-881
-884
-884
-883
-881
-879
-877
-878
-879
-880
-882
-884
-885
-884
-881
-880
-878
-879
-882
-884
-886
-888
-887
-885
-884
-883
-880
-879
-882
-884
-885
-888
-888
-886
-884
-881
-880
-881
-883
-886
-889
-891
-891
-888
-883
-880
-879
-880
-881
-883
-886
-887
-888
-886
-885
-883
