-878
-878
-879
-880
-881
-883
-884
-884
-884
-883
-883
-884
-884
-885
-886
-887
-887
-885
-883
-881
-881
-880
-881
-883
-876
-858
-832
-802
-770
-736
-706
-683
-665
-680
-734
-782
-820
-849
-856
-856
-858
-865
-880
-899
-913
-924
-933
-938
-942
-943
-944
-943
-941
-940
-935
-927
-918
-910
-902
-897
-891
-888
-886
-886
-885
-885
-883
-882
-880
-879
-878
-877
-878
-879
-878
-878
-878
-877
-875
-874
-873
-872
-872
-873
-873
-873
-872
-872
-870
-869
-869
-868
-869
-868
-869
-870
-870
-868
-866
-864
-864
-863
-863
-863
-864
-865
-864
-862
-861
-859
-857
-856
-856
-857
-857
-856
-854
-853
-851
-849
-847
-846
-845
-845
-844
-844
-842
-840
-837
-834
-831
-832
-832
-831
-829
-828
-828
-826
-824
-822
-821
-820
-821
-822
-822
-822
-821
-820
-820
-819
-819
-819
-821
-822
-824
-826
-826
-825
-826
-828
-832
-834
-835
-838
-841
-844
-846
-847
-849
-850
-852
-854
-857
-859
-862
-864
-866
-868
-867
-868
-870
-871
-874
-877
-878
-879
-879
-878
-878
-878
-877
-877
-879
-881
-881
-881
-880
-879
-880
-879
-879
-879
-880
-881
-882
-882
-882
-880
-879
-878
-879
-880
-880
-881
-881
-881
-872
-893
-886
-888
-900
-880
-874
-886
-889
-882
-881
-881
-881
-888
-891
-882
-883
-882
-882
-883
-883
-881
-881
-882
-881
-883
-883
-884
-885
-885
-885
-884
-882
-882
-884
-884
-885
-887
-886
-885
-885
-884
-884
-883
-884
-886
-887
-887
-888
-887
-887
-885
-884
-884
-885
-885
-886
-887
-888
-888
-887
-887
-887
-886
-886
-887
-888
-889
-888
-889
-888
-887
-886
-886
-886
-886
-888
-889
-889
-889
-888
-887
-887
-887
-887
-888
-889
-889
-890
-890
-889
-887
-886
-886
-887
-889
-889
-890
-890
-889
-888
-886
-886
-886
-888
-889
-889
-890
-891
-890
-889
-888
-887
-887
-888
-889
-891
-891
-890
-891
-890
-888
-887
-885
-886
-886
-885
-885
-882
-877
-875
-874
-873
-874
-874
-874
-877
-879
-881
-880
-879
-876
-872
-870
-869
-870
-869
-870
-871
-873
-874
-875
-873
-874
-876
-876
-878
-881
-883
-884
-884
-882
-882
-883
-884
-885
-889
-891
-892
-891
-890
-890
-889
-889
-890
-891
-891
-892
-893
-893
-892
-890
-890
-891
-891
-892
-892
-892
-892
-892
-891
-890
-889
-890
-889
-890
-892
-891
-890
-887
-884
-883
-883
-884
-887
-880
-863
-836
-804
-769
-733
-701
-676
-656
-669
-726
-778
-818
-850
-859
-859
-862
-871
-886
-905
-919
-930
-940
-944
-946
-947
-946
-943
-942
-940
-935
-926
-917
-909
-901
-895
-891
-887
-884
-883
-883
-884
-882
-881
-880
-878
-876
-875
-875
-875
-876
-876
-875
-875
-874
-872
-871
-870
-870
-870
-871
-872
-872
-871
-870
-869
-867
-869
-870
-869
-868
-868
-867
-866
-864
-862
-862
-861
-862
-862
-862
-862
-862
-860
-859
-857
-855
-854
-854
-854
-853
-852
-851
-849
-846
-845
-842
-841
-840
-839
-838
-837
-836
-834
-831
-828
-828
-825
-825
-826
-844
-828
-821
-819
-817
-815
-813
-823
-1281
-1814
-1701
-1468
-920
-745
-823
-859
-878
-833
-813
-814
-816
-817
-818
-820
-821
-823
-824
-827
-830
-833
-836
-839
-842
-844
-845
-847
-848
-851
-854
-858
-860
-863
-865
-865
-867
-866
-866
-868
-870
-872
-876
-876
-876
-876
-875
-875
-875
-876
-877
-878
-879
-879
-878
-878
-878
-876
-874
-875
-877
-878
-879
-879
-879
-878
-877
-875
-874
-876
-876
-877
-878
-879
-878
-877
-877
-876
-875
-876
-876
-877
-878
-878
-878
-877
-876
-876
-876
-876
-876
-877
-879
-879
-879
-878
-877
-877
-877
-877
-879
-879
-879
-879
-878
-879
-879
-879
-878
-879
-879
-880
-881
-881
-880
-880
-879
-879
-879
-879
-881
-880
-880
-881
-882
-882
-880
-880
-879
-880
-881
-882
-883
-882
-882
-882
-881
-880
-879
-880
-881
-882
-883
-883
-882
-881
-880
-880
-879
-880
-881
-880
-882
-883
-882
-881
-880
-880
-880
-880
-880
-881
-882
-882
-882
-882
-882
-880
-879
-880
-881
-882
-883
-883
-883
-882
-881
-880
-881
-881
-881
-882
-882
-882
-882
-881
-880
-879
-880
-881
-882
-882
-883
-884
-882
-880
-880
-880
-879
-880
-881
-883
-883
-882
-881
-878
-874
-871
-867
-866
-868
-868
-869
-870
-868
-868
-869
-869
-869
-869
-869
-866
-864
-863
-862
-859
-858
-859
-862
-864
-866
-867
-867
-868
-869
-869
-868
-872
-875
-876
-876
-876
-877
-877
-878
-879
-880
-880
-880
-881
-883
-884
-884
-884
-883
-883
-881
-880
-881
-882
-884
-885
-884
-884
-884
-883
-883
-882
-882
-882
-882
-883
-883
-883
-882
-881
-880
-878
-878
-877
-878
-878
-879
-881
-874
-855
-828
-794
-759
-723
-687
-658
-636
-639
-692
-752
-800
-838
-851
-854
-860
-869
-886
-904
-918
-929
-937
-943
-944
-943
-943
-942
-939
-934
-925
-914
-904
-897
-890
-886
-883
-880
-878
-876
-874
-872
-871
-870
-870
-869
-870
-870
-869
-869
-867
-866
-865
-864
-863
-863
-864
-864
-864
-864
-862
-860
-860
-859
-859
-859
-860
-861
-859
-858
-858
-856
-855
-855
-855
-855
-855
-855
-854
-853
-852
-850
-849
-848
-847
-848
-847
-847
-847
-845
-842
-841
-838
-836
-837
-835
-835
-834
-831
-829
-827
-824
-822
-820
-819
-818
-817
-816
-813
-812
-810
-807
-805
-805
-804
-804
-804
-803
-802
-801
-800
-798
-797
-798
-797
-798
-799
-800
-801
-801
-801
-802
-803
-805
-808
-811
-813
-817
-819
-822
-824
-825
-827
-831
-834
-837
-840
-843
-845
-847
-849
-850
-852
-853
-856
-858
-861
-863
-865
-865
-865
-865
-866
-866
-867
-868
-869
-871
-870
-870
-870
-869
-869
-869
-871
-871
-871
-871
-871
-870
-869
-869
-868
-869
-870
-871
-871
-871
-871
-870
-869
-869
-869
-869
-870
-871
-872
-872
-872
-872
-871
-870
-870
-871
-871
-872
-873
-873
-874
-874
-873
-871
-871
-871
-873
-874
-875
-875
-875
-875
-875
-874
-875
-875
-875
-877
-878
-877
-877
-877
-876
-875
-875
-876
-876
-877
-878
-878
-878
-878
-877
-877
-877
-877
-877
-879
-879
-880
-880
-878
-877
-877
-877
-877
-878
-879
-880
-879
-879
-878
-877
-877
-877
-877
-878
-879
-881
-880
-879
-879
-878
-877
-877
-877
-879
-879
-880
-880
-879
-878
-878
-877
-878
-878
-879
-880
-880
-880
-879
-878
-877
-877
-877
-878
-877
-879
-880
-879
-879
-878
-877
-877
-878
-879
-879
-879
-880
-879
-879
-879
-878
-879
-878
-877
-878
-877
-876
-873
-869
-865
-865
-865
-865
-866
-866
-867
-870
-870
-870
-869
-866
-862
-860
-859
-859
-858
-858
-859
-860
-861
-862
-862
-864
-867
-868
-869
-870
-872
-873
-874
-872
-872
-872
-873
-876
-879
-881
-881
-881
-880
-880
-880
-880
-880
-881
-882
-883
-883
-882
-881
-880
-880
-882
-884
-883
-883
-883
-882
-882
-881
-880
-880
-880
-881
-882
-882
-881
-880
-878
-875
-874
-873
-873
-876
-875
-864
-844
-815
-781
-746
-712
-683
-662
-651
-688
-747
-793
-828
-848
-849
-848
-855
-865
-883
-901
-913
-925
-933
-936
-937
-937
-937
-935
-934
-931
-923
-913
-904
-896
-889
-883
-878
-876
-876
-875
-875
-874
-872
-871
-870
-870
-869
-869
-869
-869
-869
-869
-867
-865
-865
-865
-863
-863
-864
-863
-863
-863
-862
-861
-860
-860
-858
-858
-858
-858
-858
-859
-859
-856
-855
-854
-854
-854
-855
-854
-854
-853
-852
-851
-849
-847
-847
-847
-847
-846
-845
-845
-842
-840
-838
-836
-835
-834
-834
-833
-830
-829
-827
-825
-822
-820
-819
-817
-817
-816
-814
-813
-811
-810
-807
-806
-805
-805
-805
-807
-806
-805
-804
-803
-802
-802
-802
-805
-807
-808
-809
-809
-811
-813
-814
-816
-819
-822
-825
-827
-830
-832
-834
-835
-837
-838
-842
-845
-848
-850
-852
-854
-855
-855
-856
-858
-860
-862
-864
-865
-866
-867
-867
-867
-865
-865
-867
-868
-870
-871
-870
-869
-869
-867
-867
-868
-868
-868
-870
-870
-870
-869
-869
-868
-867
-865
-866
-867
-868
-868
-869
-867
-867
-866
-866
-866
-866
-866
-868
-869
-868
-868
-866
-865
-864
-864
-866
-867
-868
-868
-868
-868
-867
-866
-866
-866
-867
-867
-867
-867
-868
-869
-869
-868
-868
-867
-868
-869
-870
-870
-871
-870
-870
-869
-868
-869
-870
-872
-871
-870
-871
-871
-870
-868
-869
-870
-871
-871
-872
-873
-873
-871
-870
-869
-870
-870
-870
-871
-871
-872
-873
-871
-872
-872
-870
-870
-872
-873
-873
-874
-873
-872
-871
-870
-869
-871
-873
-873
-873
-873
-872
-872
-871
-871
-871
-871
-872
-872
-873
-873
-874
-872
-871
-870
-870
-870
-872
-873
-874
-875
-874
-873
-872
-871
-871
-870
-872
-873
-874
-873
-873
-872
-871
-871
-870
-870
-871
-870
-870
-869
-865
-860
-857
-857
-858
-858
-860
-860
-860
-862
-864
-863
-861
-858
-855
-854
-853
-853
-852
-851
-851
-852
-854
-856
-855
-857
-859
-859
-861
-863
-864
-866
-866
-864
-864
-864
-865
-868
-870
-871
-871
-871
-871
-870
-872
-873
-873
-873
-873
-875
-874
-873
-871
-871
-871
-872
-873
-874
-874
-874
-873
-873
-872
-871
-872
-872
-873
-874
-874
-873
-870
-867
-864
-863
-864
-866
-870
-867
-854
-832
-802
-772
-740
-710
-686
-667
-665
-708
-755
-792
-823
-838
-838
-839
-846
-857
-874
-887
-897
-908
-914
-919
-924
-925
-923
-923
-922
-920
-914
-905
-895
-887
-880
-876
-871
-869
-867
-866
-866
-864
-862
-860
-859
-859
-859
-859
-859
-859
-858
-857
-856
-856
-854
-854
-854
-854
-852
-853
-853
-852
-851
-851
-849
-848
-850
-850
-849
-850
-850
-849
-848
-846
-844
-842
-843
-844
-845
-845
-845
-843
-841
-839
-838
-837
-837
-836
-836
-836
-835
-834
-832
-830
-828
-826
-825
-824
-823
-822
-821
-819
-817
-814
-813
-812
-811
-810
-809
-807
-805
-804
-802
-800
-799
-798
-798
-798
-798
-798
-798
-797
-795
-794
-794
-795
-795
-797
-799
-800
-801
-802
-802
-802
-804
-807
-811
-813
-817
-820
-822
-823
-825
-827
-829
-831
-834
-836
-838
-841
-843
-844
-845
-846
-848
-850
-852
-854
-855
-856
-856
-856
-855
-854
-856
-857
-858
-859
-860
-860
-860
-860
-858
-856
-856
-857
-858
-860
-861
-860
-860
-859
-859
-858
-856
-857
-857
-858
-859
-859
-859
-858
-857
-856
-856
-856
-857
-858
-859
-859
-859
-858
-857
-856
-856
-857
-859
-859
-860
-860
-860
-859
-857
-857
-858
-858
-860
-859
-860
-860
-860
-860
-859
-858
-859
-861
-861
-861
-861
-863
-863
-862
-861
-860
-860
-860
-861
-862
-864
-864
-863
-863
-862
-861
-861
-862
-863
-864
-864
-864
-864
-863
-862
-862
-862
-862
-863
-864
-864
-864
-864
-864
-863
-862
-862
-863
-863
-864
-865
-865
-864
-864
-863
-863
-863
-864
-865
-865
-865
-865
-864
-863
-862
-862
-862
-863
-863
-864
-865
-865
-864
-864
-863
-862
-862
-863
-863
-863
-864
-866
-864
-863
-863
-862
-863
-863
-863
-865
-864
-865
-863
-862
-862
-862
-861
-863
-864
-864
-864
-863
-861
-860
-858
-855
-851
-848
-848
-851
-851
-851
-850
-848
-848
-849
-851
-853
-853
-851
-848
-845
-843
-841
-839
-839
-841
-845
-847
-849
-848
-849
-850
-849
-850
-851
-853
-856
-859
-858
-858
-858
-858
-858
-858
-860
-862
-863
-864
-864
-865
-865
-864
-863
-862
-862
-863
-864
-865
-865
-866
-865
-864
-863
-862
-862
-862
-863
-864
-864
-864
-863
-863
-862
-861
-861
-860
-858
-857
-858
-857
-857
-857
-851
-833
-808
-776
-742
-708
-672
-643
-618
-619
-669
-727
-776
-814
-829
-833
-836
-846
-864
-882
-895
-908
-918
-923
-924
-924
-923
-921
-918
-912
-903
-893
-884
-876
-870
-865
-862
-859
-857
-854
-851
-850
-849
-849
-849
-850
-850
-848
-847
-846
-844
-843
-842
-842
-842
-843
-843
-842
-841
-840
-839
-838
-837
-838
-838
-838
-838
-838
-837
-836
-834
-833
-832
-832
-832
-832
-833
-832
-830
-828
-827
-826
-825
-825
-825
-825
-825
-823
-822
-820
-818
-816
-814
-814
-813
-812
-810
-808
-806
-804
-801
-799
-797
-796
-794
-793
-791
-789
-786
-784
-781
-779
-778
-777
-777
-776
-775
-775
-773
-771
-769
-768
-768
-768
-769
-770
-771
-770
-770
-771
-771
-773
-776
-778
-781
-784
-787
-790
-791
-793
-795
-797
-801
-805
-808
-811
-814
-816
-818
-819
-821
-824
-826
-829
-832
-834
-836
-837
-837
-837
-838
-839
-840
-841
-842
-844
-845
-844
-844
-843
-841
-843
-843
-844
-844
-845
-845
-843
-843
-842
-842
-841
-842
-843
-844
-844
-844
-843
-842
-841
-841
-841
-841
-842
-843
-843
-844
-843
-842
-842
-842
-843
-842
-843
-845
-845
-845
-845
-844
-844
-843
-843
-844
-846
-847
-848
-847
-847
-846
-845
-845
-846
-846
-847
-848
-849
-849
-849
-848
-847
-847
-847
-847
-849
-850
-850
-850
-850
-849
-848
-848
-849
-850
-851
-852
-852
-851
-851
-851
-850
-850
-849
-850
-852
-852
-853
-853
-852
-851
-851
-851
-851
-852
-852
-853
-854
-853
-853
-851
-851
-851
-851
-852
-853
-853
-853
-853
-853
-852
-852
-851
-852
-852
-853
-854
-854
-854
-854
-853
-852
-852
-853
-854
-854
-855
-855
-855
-854
-853
-852
-852
-853
-854
-854
-856
-856
-855
-854
-854
-852
-851
-851
-851
-850
-847
-843
-840
-840
-840
-838
-839
-839
-839
-840
-843
-845
-845
-843
-838
-835
-833
-832
-833
-832
-833
-836
-837
-838
-837
-837
-838
-840
-841
-843
-846
-848
-849
-848
-846
-846
-847
-848
-850
-854
-856
-856
-855
-854
-853
-853
-853
-854
-857
-857
-856
-856
-855
-855
-854
-854
-854
-855
-856
-856
-856
-856
-855
-854
-853
-852
-853
-854
-854
-855
-855
-853
-852
-850
-849
-849
-849
-851
-847
-831
-805
-773
-738
-700
-663
-633
-610
-611
-665
-726
-776
-813
-825
-827
-830
-838
-853
-874
-889
-901
-912
-917
-918
-916
-913
-912
-910
-907
-899
-889
-880
-872
-865
-858
-854
-850
-849
-848
-848
-848
-848
-847
-845
-843
-843
-842
-841
-842
-841
-841
-842
-841
-839
-837
-837
-836
-836
-836
-836
-837
-837
-836
-835
-834
-832
-832
-831
-832
-833
-834
-833
-833
-831
-830
-828
-827
-827
-827
-827
-827
-826
-825
-823
-821
-820
-819
-819
-819
-819
-818
-816
-814
-812
-809
-808
-806
-805
-804
-804
-804
-801
-797
-795
-792
-790
-788
-786
-785
-785
-784
-782
-780
-777
-775
-774
-774
-773
-773
-773
-773
-772
-770
-770
-769
-769
-769
-771
-773
-775
-778
-780
-781
-782
-784
-786
-789
-792
-796
-800
-804
-806
-809
-810
-812
-815
-817
-821
-824
-827
-830
-831
-833
-832
-833
-835
-836
-839
-842
-844
-844
-845
-845
-845
-844
-843
-844
-845
-847
-848
-848
-848
-848
-847
-845
-844
-846
-847
-847
-847
-848
-848
-847
-846
-845
-845
-845
-845
-847
-847
-847
-847
-846
-845
-844
-845
-845
-846
-846
-847
-847
-847
-847
-846
-847
-847
-847
-849
-849
-850
-849
-847
-846
-845
-845
-846
-847
-847
-849
-850
-849
-848
-847
-846
-846
-847
-847
-848
-849
-850
-850
-850
-850
-848
-849
-849
-850
-851
-852
-852
-851
-851
-851
-851
-850
-851
-850
-852
-852
-851
-851
-851
-852
-851
-850
-850
-850
-852
-853
-853
-853
-853
-851
-849
-850
-851
-852
-852
-853
-853
-853
-853
-851
-851
-851
-850
-850
-851
-852
-853
-852
-852
-851
-851
-850
-851
-851
-852
-853
-854
-854
-853
-851
-851
-851
-851
-852
-854
-855
-855
-854
-852
-852
-851
-851
-852
-853
-854
-854
-854
-854
-853
-852
-851
-852
-852
-852
-852
-852
-853
-851
-848
-845
-842
-840
-840
-841
-841
-842
-842
-842
-841
-842
-841
-841
-840
-838
-837
-835
-835
-834
-833
-832
-832
-835
-837
-837
-838
-841
-842
-842
-843
-843
-845
-846
-846
-846
-847
-848
-849
-850
-851
-851
-851
-852
-853
-855
-855
-855
-856
-854
-853
-853
-853
-853
-852
-853
-855
-857
-856
-855
-854
-853
-852
-852
-853
-854
-855
-855
-855
-854
-852
-852
-851
-849
-847
-847
-848
-848
-851
-847
-831
-808
-777
-746
-714
-683
-660
-640
-638
-685
-736
-774
-807
-821
-821
-823
-831
-841
-859
-872
-882
-891
-898
-903
-906
-908
-909
-909
-906
-902
-893
-882
-873
-867
-862
-858
-855
-852
-849
-848
-846
-843
-842
-842
-843
-843
-843
-842
-842
-841
-839
-838
-837
-837
-837
-838
-837
-836
-836
-835
-833
-832
-832
-832
-832
-833
-833
-832
-831
-831
-829
-828
-828
-827
-827
-828
-829
-828
-828
-826
-825
-823
-822
-822
-821
-820
-820
-820
-820
-819
-815
-814
-811
-811
-811
-810
-810
-809
-807
-804
-801
-799
-797
-795
-794
-793
-793
-790
-788
-787
-784
-783
-782
-781
-781
-780
-780
-778
-777
-777
-774
-772
-772
-772
-774
-775
-776
-777
-778
-778
-778
-778
-779
-782
-785
-788
-791
-793
-795
-797
-798
-800
-802
-806
-809
-812
-815
-818
-819
-820
-822
-823
-826
-828
-830
-832
-833
-835
-836
-836
-836
-836
-836
-837
-838
-841
-841
-842
-841
-841
-840
-839
-839
-840
-842
-841
-842
-842
-842
-841
-839
-839
-839
-839
-840
-840
-840
-840
-840
-840
-838
-838
-839
-839
-840
-841
-841
-840
-840
-840
-838
-837
-838
-839
-841
-841
-842
-842
-841
-841
-839
-839
-840
-840
-841
-842
-842
-842
-842
-842
-840
-840
-840
-842
-843
-844
-844
-843
-843
-843
-842
-842
-842
-843
-844
-845
-846
-845
-845
-844
-843
-843
-844
-845
-846
-846
-847
-846
-845
-845
-844
-844
-844
-845
-847
-848
-848
-847
-846
-846
-844
-844
-845
-847
-847
-847
-848
-848
-847
-845
-846
-845
-846
-847
-847
-848
-848
-848
-846
-846
-845
-845
-846
-846
-847
-848
-848
-848
-847
-846
-845
-845
-846
-847
-848
-848
-848
-848
-848
-847
-846
-846
-847
-847
-848
-849
-849
-848
-847
-846
-846
-846
-847
-848
-848
-850
-849
-848
-847
-847
-847
-846
-847
-847
-847
-847
-848
-846
-844
-841
-837
-834
-834
-836
-836
-836
-836
-834
-834
-836
-836
-836
-835
-833
-831
-830
-829
-827
-825
-826
-827
-829
-832
-832
-834
-835
-836
-836
-836
-837
-839
-840
-840
-841
-842
-843
-843
-843
-845
-846
-846
-847
-847
-848
-849
-849
-849
-848
-848
-847
-847
-847
-849
-850
-850
-849
-849
-850
-849
-847
-847
-847
-848
-849
-850
-849
-849
-849
-847
-846
-845
-844
-842
-842
-843
-843
-845
-842
-827
-804
-773
-740
-707
-674
-645
-621
-609
-647
-707
-754
-793
-813
-817
-821
-828
-840
-859
-873
-884
-895
-902
-905
-907
-908
-907
-905
-901
-895
-884
-875
-867
-860
-855
-850
-848
-845
-842
-840
-838
-837
-836
-835
-836
-836
-836
-835
-834
-832
-831
-830
-830
-830
-830
-830
-829
-829
-829
-828
-826
-825
-825
-825
-826
-827
-826
-826
-825
-824
-823
-821
-821
-821
-821
-821
-821
-821
-819
-817
-816
-815
-814
-814
-815
-814
-813
-812
-810
-808
-806
-804
-804
-803
-802
-801
-800
-798
-796
-793
-790
-787
-786
-784
-784
-783
-781
-779
-776
-773
-771
-770
-768
-767
-767
-766
-766
-765
-763
-762
-760
-759
-759
-760
-761
-761
-762
-761
-763
-763
-763
-764
-766
-770
-773
-776
-779
-781
-783
-785
-787
-790
-792
-796
-800
-803
-805
-808
-810
-811
-813
-815
-817
-820
-823
-825
-826
-828
-828
-828
-829
-830
-831
-832
-834
-835
-836
-836
-835
-835
-834
-834
-835
-836
-836
-838
-837
-837
-836
-834
-833
-833
-834
-835
-836
-836
-836
-836
-835
-834
-833
-834
-834
-834
-835
-836
-836
-835
-835
-834
-834
-834
-834
-835
-835
-836
-836
-836
-836
-835
-834
-835
-835
-836
-837
-838
-838
-838
-837
-836
-835
-836
-837
-838
-839
-840
-840
-839
-838
-837
-837
-838
-839
-839
-841
-841
-841
-841
-840
-839
-839
-840
-841
-842
-842
-843
-844
-842
-841
-840
-840
-840
-842
-842
-843
-844
-844
-843
-843
-842
-841
-842
-842
-842
-843
-844
-844
-843
-843
-841
-841
-842
-843
-844
-845
-845
-844
-843
-842
-841
-842
-842
-843
-844
-845
-845
-844
-844
-844
-843
-843
-843
-843
-844
-845
-845
-845
-844
-843
-843
-843
-843
-844
-845
-845
-845
-844
-844
-844
-842
-842
-843
-844
-845
-845
-846
-845
-845
-843
-843
-843
-843
-844
-845
-846
-845
-844
-843
-841
-839
-837
-834
-832
-831
-832
-832
-831
-830
-830
-829
-832
-833
-834
-833
-831
-828
-826
-825
-823
-821
-821
-823
-827
-828
-829
-829
-829
-830
-828
-829
-832
-834
-837
-839
-838
-837
-838
-838
-837
-838
-840
-842
-843
-844
-845
-845
-845
-844
-843
-842
-842
-843
-843
-845
-845
-846
-845
-844
-843
-842
-842
-842
-843
-844
-845
-844
-844
-842
-841
-840
-840
-841
-840
-839
-839
-839
-838
-838
-839
-831
-812
-786
-754
-720
-684
-649
-620
-597
-606
-662
-721
-769
-803
-812
-814
-819
-828
-844
-861
-874
-886
-896
-903
-904
-904
-902
-900
-897
-892
-884
-875
-866
-860
-854
-848
-844
-841
-838
-835
-834
-833
-833
-834
-833
-832
-832
-830
-829
-828
-827
-826
-827
-828
-828
-827
-826
-825
-823
-822
-821
-821
-822
-822
-822
-821
-821
-819
-818
-817
-817
-817
-817
-817
-818
-817
-815
-814
-813
-811
-811
-811
-811
-811
-810
-810
-808
-806
-804
-802
-801
-801
-800
-800
-799
-798
-795
-792
-790
-788
-786
-784
-783
-782
-781
-779
-777
-774
-771
-769
-766
-765
-764
-763
-763
-761
-760
-758
-756
-755
-754
-753
-753
-754
-754
-754
-754
-753
-754
-754
-755
-757
-760
-762
-765
-767
-769
-770
-773
-776
-779
-783
-787
-790
-793
-796
-797
-799
-801
-802
-805
-808
-811
-813
-816
-817
-819
-819
-820
-821
-822
-823
-825
-826
-826
-827
-827
-827
-827
-828
-828
-828
-829
-830
-831
-830
-830
-829
-828
-827
-826
-827
-828
-830
-830
-829
-828
-828
-826
-825
-826
-826
-826
-828
-828
-828
-827
-826
-826
-825
-826
-826
-826
-828
-829
-829
-828
-827
-825
-825
-825
-825
-827
-828
-828
-829
-828
-827
-827
-827
-827
-828
-829
-830
-830
-830
-830
-828
-827
-827
-829
-830
-831
-830
-831
-831
-829
-828
-828
-828
-829
-830
-831
-831
-832
-832
-831
-831
-829
-829
-830
-832
-833
-833
-833
-832
-831
-830
-830
-830
-831
-832
-833
-834
-833
-833
-832
-830
-830
-830
-831
-832
-833
-834
-834
-833
-832
-831
-831
-831
-832
-833
-834
-834
-833
-833
-833
-832
-832
-832
-832
-832
-833
-834
-834
-834
-833
-832
-831
-831
-832
-834
-835
-834
-834
-833
-833
-832
-831
-832
-833
-834
-834
-835
-835
-835
-834
-832
-831
-833
-833
-833
-834
-835
-836
-835
-833
-833
-833
-833
-833
-834
-836
-836
-836
-834
-834
-833
-832
-833
-835
-835
-834
-834
-833
-831
-829
-825
-821
-820
-822
-822
-823
-823
-823
-822
-823
-823
-824
-823
-822
-820
-818
-816
-815
-813
-813
-813
-816
-818
-820
-822
-822
-823
-823
-823
-824
-825
-826
-827
-827
-828
-830
-829
-830
-832
-833
-833
-833
-834
-835
-835
-835
-836
-836
-834
-834
-833
-834
-835
-836
-836
-837
-837
-836
-835
-834
-832
-833
-832
-833
-835
-836
-835
-835
-834
-833
-832
-831
-830
-829
-828
-827
-829
-831
-827
-812
-789
-759
-728
-695
-663
-638
-617
-611
-656
-706
-747
-782
-800
-802
-805
-812
-822
-840
-851
-862
-873
-881
-887
-891
-892
-892
-890
-887
-882
-874
-864
-855
-849
-844
-840
-837
-835
-832
-829
-827
-826
-825
-825
-825
-825
-825
-824
-822
-821
-819
-819
-819
-820
-820
-820
-820
-819
-817
-816
-816
-816
-815
-815
-814
-815
-817
-816
-815
-814
-812
-811
-810
-811
-810
-809
-809
-808
-807
-807
-806
-806
-805
-804
-804
-804
-804
-803
-801
-799
-797
-796
-796
-796
-794
-793
-792
-789
-788
-785
-783
-781
-780
-780
-779
-778
-776
-773
-770
-768
-765
-764
-763
-762
-762
-762
-761
-760
-758
-755
-754
-754
-755
-756
-757
-757
-757
-757
-757
-757
-757
-758
-761
-764
-766
-768
-771
-773
-774
-776
-778
-780
-784
-788
-790
-793
-796
-798
-799
-801
-801
-803
-805
-808
-811
-812
-814
-815
-815
-815
-815
-817
-819
-820
-820
-823
-823
-822
-822
-822
-821
-822
-823
-823
-823
-824
-825
-823
-823
-822
-822
-822
-822
-822
-823
-823
-823
-822
-821
-820
-820
-821
-821
-822
-823
-824
-824
-823
-822
-821
-820
-820
-821
-821
-822
-824
-823
-822
-821
-821
-820
-820
-821
-823
-824
-824
-823
-823
-822
-821
-822
-823
-823
-823
-824
-824
-824
-823
-823
-822
-822
-823
-824
-825
-825
-825
-825
-825
-825
-824
-823
-825
-826
-826
-827
-827
-827
-825
-825
-824
-824
-824
-825
-827
-828
-828
-828
-827
-826
-825
-825
-825
-826
-827
-827
-828
-827
-826
-825
-825
-826
-826
-826
-826
-828
-828
-827
-826
-826
-825
-825
-826
-826
-828
-828
-828
-828
-826
-825
-825
-825
-825
-826
-827
-827
-828
-826
-826
-825
-826
-825
-825
-827
-828
-828
-828
-828
-827
-825
-825
-825
-825
-827
-827
-827
-827
-826
-826
-824
-824
-824
-825
-827
-827
-828
-828
-827
-826
-825
-824
-824
-825
-827
-827
-827
-826
-826
-824
-821
-820
-819
-815
-814
-814
-815
-815
-814
-813
-812
-812
-815
-816
-816
-816
-813
-809
-808
-807
-804
-803
-804
-807
-809
-811
-812
-812
-812
-811
-810
-812
-814
-817
-819
-820
-819
-820
-819
-819
-819
-820
-822
-823
-825
-825
-826
-825
-825
-824
-824
-824
-823
-824
-825
-825
-826
-826
-825
-824
-824
-823
-823
-824
-825
-825
-825
-825
-824
-823
-821
-821
-822
-822
-821
-820
-819
-818
-817
-818
-819
-812
-794
-769
-738
-705
-671
-637
-610
-587
-598
-653
-705
-747
-780
-792
-794
-798
-806
-820
-837
-850
-862
-873
-879
-882
-883
-881
-879
-875
-872
-865
-856
-848
-840
-836
-829
-825
-821
-817
-815
-813
-813
-813
-813
-813
-812
-810
-809
-807
-806
-806
-806
-806
-807
-807
-805
-804
-803
-801
-801
-801
-800
-800
-801
-801
-801
-800
-798
-796
-796
-795
-796
-796
-796
-796
-796
-794
-793
-791
-790
-790
-790
-790
-790
-789
-788
-786
-785
-782
-781
-780
-779
-779
-779
-777
-776
-774
-771
-769
-767
-765
-763
-763
-762
-761
-758
-755
-752
-749
-747
-746
-745
-744
-744
-742
-741
-738
-736
-734
-734
-733
-733
-733
-733
-733
-732
-731
-731
-731
-732
-733
-735
-738
-740
-742
-745
-747
-748
-749
-752
-755
-759
-763
-767
-769
-771
-773
-774
-776
-779
-782
-785
-787
-789
-792
-793
-794
-795
-796
-797
-798
-800
-802
-803
-803
-804
-804
-803
-803
-803
-805
-805
-805
-806
-806
-806
-806
-804
-803
-803
-804
-805
-806
-805
-805
-805
-804
-803
-802
-802
-803
-804
-805
-805
-805
-804
-803
-802
-802
-802
-802
-804
-804
-805
-805
-805
-804
-803
-802
-803
-803
-804
-806
-806
-805
-805
-804
-804
-803
-803
-804
-806
-807
-808
-807
-806
-806
-804
-804
-805
-806
-807
-808
-808
-808
-808
-807
-806
-806
-806
-807
-808
-809
-810
-809
-808
-808
-806
-807
-807
-809
-809
-809
-810
-810
-809
-808
-808
-808
-808
-809
-809
-810
-810
-810
-810
-809
-808
-807
-807
-809
-809
-810
-810
-810
-809
-808
-807
-807
-808
-809
-810
-810
-810
-809
-809
-808
-808
-807
-808
-809
-810
-811
-810
-810
-809
-808
-807
-807
-808
-808
-809
-810
-810
-809
-809
-808
-808
-807
-808
-808
-809
-810
-810
-809
-809
-808
-807
-807
-808
-809
-810
-810
-810
-810
-809
-808
-808
-808
-808
-809
-809
-809
-810
-810
-808
-807
-807
-807
-807
-808
-810
-810
-808
-806
-804
-801
-798
-795
-794
-795
-796
-797
-797
-796
-796
-796
-796
-795
-793
-793
-791
-791
-791
-789
-787
-788
-789
-790
-793
-793
-794
-796
-796
-796
-796
-797
-799
-800
-800
-801
-802
-803
-804
-804
-805
-805
-806
-806
-807
-808
-808
-809
-809
-809
-808
-806
-807
-807
-807
-808
-810
-810
-808
-808
-807
-807
-806
-807
-808
-809
-808
-809
-809
-807
-806
-805
-804
-803
-801
-802
-803
-802
-804
-803
-790
-766
-735
-701
-666
-630
-599
-573
-556
-586
-646
-700
-743
-769
-775
-778
-785
-797
-816
-831
-843
-854
-861
-864
-866
-867
-866
-864
-861
-855
-845
-834
-825
-818
-814
-810
-807
-804
-802
-799
-797
-796
-795
-795
-796
-795
-795
-794
-794
-791
-790
-790
-789
-788
-790
-789
-789
-788
-787
-786
-785
-784
-783
-783
-785
-785
-784
-785
-782
-781
-780
-779
-779
-779
-779
-779
-779
-778
-777
-776
-774
-772
-772
-772
-772
-772
-772
-771
-769
-767
-765
-763
-762
-761
-761
-759
-759
-758
-755
-753
-750
-747
-745
-744
-743
-742
-741
-738
-735
-732
-729
-728
-727
-726
-726
-725
-724
-722
-720
-718
-716
-715
-714
-715
-716
-716
-716
-717
-716
-716
-716
-717
-719
-721
-725
-728
-731
-733
-734
-737
-739
-741
-745
-749
-752
-756
-759
-761
-763
-765
-766
-768
-771
-774
-776
-778
-781
-782
-783
-783
-783
-784
-786
-787
-789
-790
-790
-790
-790
-789
-789
-789
-790
-791
-792
-793
-793
-793
-791
-789
-789
-789
-789
-790
-791
-791
-791
-791
-790
-789
-788
-787
-788
-788
-789
-790
-791
-791
-790
-789
-788
-788
-789
-790
-791
-791
-791
-791
-790
-789
-789
-788
-789
-791
-792
-792
-792
-793
-792
-791
-791
-790
-791
-792
-792
-793
-793
-793
-792
-791
-791
-792
-791
-793
-794
-795
-794
-793
-793
-792
-791
-791
-792
-794
-794
-795
-796
-796
-794
-792
-792
-792
-793
-794
-796
-795
-795
-795
-794
-793
-794
-794
-795
-795
-796
-796
-796
-795
-795
-795
-794
-794
-794
-795
-796
-797
-796
-795
-794
-793
-793
-794
-795
-795
-795
-795
-796
-796
-795
-794
-794
-794
-795
-796
-797
-797
-797
-796
-794
-794
-794
-794
-795
-797
-798
-797
-797
-797
-795
-795
-795
-795
-796
-798
-797
-798
-797
-796
-795
-794
-794
-795
-796
-796
-797
-797
-797
-796
-796
-795
-794
-795
-797
-798
-798
-798
-797
-796
-795
-794
-795
-796
-797
-798
-799
-798
-797
-794
-792
-791
-789
-786
-785
-785
-785
-784
-784
-785
-784
-784
-785
-786
-785
-783
-781
-780
-779
-777
-775
-775
-776
-779
-782
-783
-784
-784
-783
-782
-783
-784
-787
-790
-791
-790
-790
-791
-791
-791
-791
-792
-792
-794
-796
-798
-798
-798
-797
-795
-795
-794
-793
-794
-796
-797
-797
-797
-797
-796
-795
-794
-794
-795
-795
-796
-797
-797
-797
-794
-794
-793
-792
-792
-792
-791
-791
-791
-790
-791
-784
-767
-741
-710
-679
-645
-613
-588
-567
-573
-626
-677
-717
-751
-763
-764
-768
-776
-787
-804
-816
-827
-838
-845
-849
-853
-854
-852
-849
-846
-841
-832
-823
-815
-810
-806
-801
-797
-794
-791
-788
-788
-787
-786
-786
-787
-787
-786
-785
-784
-782
-781
-781
-781
-782
-782
-781
-781
-780
-778
-777
-777
-776
-776
-777
-778
-776
-776
-776
-774
-772
-772
-772
-773
-774
-773
-773
-773
-771
-770
-769
-767
-767
-768
-768
-768
-768
-766
-764
-762
-760
-759
-758
-758
-758
-758
-756
-755
-752
-749
-748
-746
-745
-745
-745
-743
-740
-737
-734
-731
-729
-728
-728
-728
-728
-727
-725
-723
-721
-719
-718
-718
-717
-718
-719
-719
-719
-718
-718
-718
-718
-719
-721
-723
-725
-728
-730
-732
-734
-736
-739
-741
-744
-747
-750
-753
-755
-756
-759
-761
-762
-764
-768
-770
-773
-775
-777
-778
-778
-778
-780
-781
-783
-784
-786
-787
-788
-787
-786
-784
-785
-786
-788
-789
-789
-789
-790
-789
-787
-786
-786
-786
-786
-788
-789
-790
-790
-789
-788
-787
-786
-787
-788
-789
-790
-791
-789
-789
-787
-787
-787
-788
-789
-789
-790
-791
-790
-789
-789
-789
-789
-789
-790
-791
-793
-793
-792
-791
-790
-789
-790
-789
-791
-792
-792
-792
-792
-792
-791
-790
-790
-791
-793
-794
-794
-794
-794
-793
-793
-793
-793
-794
-794
-795
-796
-795
-795
-795
-794
-793
-794
-794
-795
-796
-797
-797
-796
-796
-796
-794
-794
-796
-796
-797
-798
-797
-797
-797
-795
-795
-795
-796
-798
-799
-799
-798
-796
-796
-795
-796
-796
-797
-798
-798
-798
-798
-797
-797
-797
-796
-796
-797
-798
-799
-799
-799
-799
-798
-797
-797
-797
-798
-799
-799
-800
-800
-798
-798
-798
-797
-798
-799
-799
-800
-800
-800
-800
-799
-797
-797
-798
-798
-799
-801
-801
-802
-800
-799
-798
-797
-797
-798
-799
-801
-802
-802
-801
-799
-797
-795
-794
-794
-792
-790
-789
-789
-788
-787
-785
-785
-787
-790
-791
-790
-789
-786
-783
-780
-780
-779
-779
-781
-785
-788
-788
-786
-785
-787
-786
-787
-789
-791
-792
-794
-795
-794
-794
-794
-794
-795
-798
-800
-801
-801
-801
-800
-800
-799
-799
-800
-801
-802
-802
-802
-802
-801
-800
-800
-800
-799
-800
-801
-801
-802
-801
-800
-799
-798
-800
-800
-800
-801
-800
-799
-797
-796
-794
-794
-795
-793
-781
-760
-732
-703
-671
-639
-611
-589
-579
-617
-666
-706
-742
-764
-768
-770
-776
-784
-799
-813
-825
-837
-846
-852
-857
-858
-856
-853
-850
-847
-842
-834
-826
-820
-814
-807
-803
-799
-796
-794
-794
-794
-793
-793
-792
-790
-789
-788
-787
-787
-787
-788
-788
-788
-786
-785
-783
-782
-781
-781
-782
-783
-783
-782
-781
-780
-779
-778
-777
-778
-778
-778
-778
-778
-777
-776
-774
-773
-772
-772
-773
-773
-773
-773
-771
-770
-768
-767
-765
-765
-764
-764
-764
-763
-761
-759
-757
-754
-752
-752
-752
-751
-749
-747
-746
-744
-740
-738
-736
-735
-735
-734
-733
-732
-730
-728
-726
-725
-723
-723
-724
-724
-724
-724
-722
-720
-720
-720
-721
-723
-724
-725
-728
-729
-731
-733
-734
-735
-737
-741
-744
-747
-750
-753
-755
-756
-758
-760
-762
-765
-768
-771
-773
-775
-776
-777
-777
-778
-780
-781
-783
-785
-786
-786
-786
-786
-785
-785
-786
-787
-788
-789
-790
-790
-788
-787
-786
-786
-786
-787
-788
-789
-789
-788
-788
-787
-786
-786
-786
-787
-788
-789
-789
-788
-788
-786
-786
-786
-785
-787
-788
-788
-789
-789
-788
-787
-786
-786
-787
-789
-789
-790
-790
-790
-789
-789
-787
-787
-787
-789
-791
-791
-791
-791
-790
-789
-789
-788
-789
-790
-791
-792
-793
-792
-791
-790
-790
-790
-790
-791
-792
-793
-793
-793
-792
-791
-791
-791
-791
-793
-794
-794
-793
-793
-793
-792
-791
-791
-791
-793
-794
-795
-794
-793
-793
-792
-791
-792
-793
-793
-794
-795
-794
-794
-793
-792
-792
-792
-792
-794
-794
-795
-795
-794
-793
-792
-791
-792
-792
-793
-793
-794
-795
-794
-793
-792
-792
-792
-793
-793
-794
-794
-794
-793
-793
-792
-791
-791
-792
-794
-794
-794
-794
-793
-792
-791
-791
-792
-792
-793
-794
-795
-794
-793
-792
-791
-791
-791
-792
-793
-794
-794
-793
-793
-791
-789
-787
-786
-783
-781
-781
-780
-780
-780
-779
-778
-778
-780
-781
-781
-780
-778
-776
-774
-772
-770
-770
-772
-775
-777
-778
-778
-777
-778
-777
-778
-780
-782
-785
-787
-787
-786
-786
-786
-785
-786
-787
-790
-791
-792
-793
-793
-793
-792
-791
-790
-790
-791
-792
-792
-793
-794
-794
-793
-791
-790
-790
-790
-791
-793
-793
-793
-792
-792
-790
-789
-789
-790
-788
-788
-787
-787
-787
-786
-787
-785
-771
-748
-717
-684
-649
-612
-579
-552
-538
-574
-635
-689
-731
-756
-762
-766
-773
-784
-802
-818
-830
-842
-850
-853
-854
-852
-850
-847
-844
-838
-828
-819
-811
-805
-800
-794
-790
-787
-784
-782
-780
-781
-781
-780
-781
-780
-778
-776
-775
-774
-774
-774
-776
-776
-775
-774
-773
-771
-770
-770
-769
-769
-770
-771
-770
-769
-767
-766
-765
-764
-764
-765
-765
-765
-765
-764
-763
-761
-760
-759
-759
-758
-758
-759
-758
-757
-755
-753
-751
-751
-749
-749
-749
-748
-747
-745
-743
-740
-737
-735
-734
-733
-732
-730
-729
-726
-723
-720
-718
-715
-713
-714
-713
-711
-710
-709
-707
-703
-701
-700
-700
-700
-701
-701
-701
-700
-699
-698
-698
-699
-701
-703
-706
-709
-711
-713
-715
-716
-718
-722
-725
-729
-733
-736
-739
-742
-743
-745
-747
-750
-753
-756
-759
-762
-763
-764
-765
-767
-768
-769
-770
-772
-774
-776
-777
-777
-776
-776
-775
-775
-777
-778
-779
-780
-780
-779
-778
-777
-777
-777
-777
-778
-778
-779
-780
-779
-777
-776
-776
-776
-777
-778
-779
-778
-778
-777
-776
-775
-775
-776
-776
-778
-780
-779
-779
-778
-777
-777
-777
-777
-778
-779
-780
-780
-781
-780
-779
-778
-778
-778
-779
-781
-781
-782
-782
-781
-780
-779
-779
-780
-781
-782
-783
-783
-782
-781
-780
-780
-781
-782
-782
-783
-784
-784
-784
-783
-782
-782
-781
-782
-783
-784
-785
-785
-785
-785
-784
-783
-783
-783
-785
-786
-786
-786
-786
-785
-784
-784
-783
-783
-784
-786
-786
-787
-787
-786
-785
-783
-784
-784
-785
-786
-787
-787
-787
-786
-784
-784
-784
-784
-785
-786
-787
-787
-787
-786
-786
-786
-785
-786
-787
-788
-787
-788
-788
-786
-786
-786
-786
-787
-787
-788
-787
-787
-788
-787
-786
-786
-786
-786
-787
-788
-788
-788
-786
-783
-780
-776
-773
-773
-774
-774
-775
-775
-775
-775
-776
-776
-775
-774
-772
-771
-770
-769
-768
-767
-767
-768
-770
-772
-773
-774
-776
-776
-776
-777
-778
-779
-780
-780
-781
-783
-785
-785
-785
-786
-786
-786
-787
-788
-789
-790
-790
-790
-789
-789
-787
-787
-787
-788
-789
-790
-791
-791
-791
-790
-789
-788
-787
-788
-789
-790
-790
-790
-789
-788
-786
-786
-785
-783
-783
-783
-783
-786
-784
-771
-748
-720
-689
-655
-622
-592
-568
-552
-586
-644
-690
-728
-751
-756
-758
-765
-775
-793
-809
-820
-831
-840
-844
-847
-848
-848
-846
-844
-839
-831
-820
-812
-806
-801
-796
-792
-790
-786
-784
-782
-780
-780
-780
-780
-780
-780
-779
-779
-777
-775
-775
-774
-774
-775
-775
-775
-774
-772
-771
-771
-770
-769
-770
-770
-771
-771
-769
-768
-767
-766
-765
-766
-766
-767
-766
-766
-765
-764
-763
-762
-761
-761
-760
-760
-761
-762
-759
-757
-756
-754
-752
-751
-751
-750
-750
-748
-747
-744
-741
-739
-736
-736
-735
-733
-731
-731
-728
-726
-723
-721
-719
-718
-718
-717
-717
-716
-714
-712
-710
-708
-708
-708
-708
-708
-709
-711
-710
-710
-710
-710
-711
-712
-716
-719
-722
-724
-726
-728
-730
-731
-733
-737
-741
-744
-748
-751
-753
-755
-756
-758
-760
-762
-765
-767
-770
-772
-773
-773
-773
-773
-774
-776
-779
-781
-781
-782
-782
-781
-781
-780
-780
-782
-782
-783
-785
-784
-783
-782
-781
-781
-780
-781
-782
-783
-784
-783
-782
-781
-781
-780
-780
-780
-781
-783
-784
-784
-783
-782
-780
-780
-780
-780
-781
-782
-782
-783
-783
-781
-781
-780
-780
-782
-783
-783
-783
-784
-783
-782
-781
-781
-782
-783
-784
-785
-786
-786
-785
-784
-783
-783
-784
-784
-784
-785
-786
-787
-786
-785
-784
-784
-785
-786
-787
-787
-787
-787
-787
-787
-785
-786
-786
-787
-788
-789
-789
-789
-788
-787
-786
-786
-786
-787
-788
-790
-790
-790
-789
-788
-787
-786
-787
-789
-790
-790
-790
-790
-790
-789
-788
-788
-787
-788
-789
-790
-791
-790
-789
-788
-788
-787
-789
-790
-791
-792
-792
-791
-790
-789
-788
-788
-788
-789
-790
-791
-791
-791
-790
-790
-788
-788
-789
-790
-790
-789
-788
-785
-780
-778
-777
-777
-777
-778
-780
-780
-781
-782
-781
-780
-778
-775
-772
-773
-773
-772
-771
-771
-772
-773
-774
-774
-775
-778
-779
-780
-781
-783
-782
-783
-782
-781
-784
-785
-787
-788
-790
-791
-790
-789
-788
-789
-790
-791
-792
-793
-793
-792
-791
-790
-790
-790
-790
-791
-793
-794
-793
-792
-791
-790
-789
-789
-790
-791
-792
-792
-792
-791
-789
-786
-784
-783
-783
-784
-787
-788
-779
-760
-731
-700
-668
-636
-607
-586
-569
-593
-646
-690
-725
-750
-755
-757
-763
-773
-788
-805
-816
-826
-834
-838
-842
-846
-847
-846
-845
-843
-837
-827
-816
-808
-802
-797
-794
-791
-790
-788
-786
-785
-783
-782
-781
-780
-781
-780
-781
-781
-780
-778
-777
-775
-775
-775
-776
-777
-777
-776
-775
-774
-772
-770
-769
-770
-771
-772
-772
-771
-770
-769
-768
-766
-765
-766
-766
-766
-767
-766
-765
-763
-761
-760
-759
-759
-759
-759
-759
-758
-756
-754
-752
-750
-748
-748
-748
-748
-746
-745
-742
-739
-736
-734
-732
-731
-730
-729
-728
-726
-723
-721
-719
-716
-715
-715
-714
-714
-714
-713
-712
-710
-708
-707
-708
-709
-710
-710
-712
-712
-712
-712
-712
-714
-716
-720
-723
-726
-729
-732
-734
-736
-737
-739
-743
-746
-750
-753
-756
-758
-759
-760
-761
-763
-765
-767
-770
-773
-774
-775
-775
-776
-775
-775
-776
-778
-780
-781
-782
-782
-781
-780
-779
-779
-779
-780
-782
-783
-783
-783
-781
-780
-780
-779
-779
-780
-782
-783
-782
-781
-780
-779
-778
-778
-779
-780
-782
-782
-782
-782
-781
-780
-779
-778
-779
-781
-782
-783
-783
-782
-782
-781
-781
-781
-781
-782
-783
-784
-784
-784
-782
-781
-781
-781
-783
-784
-784
-785
-786
-785
-784
-783
-782
-782
-783
-784
-786
-787
-787
-787
-786
-785
-784
-784
-785
-786
-788
-788
-787
-786
-785
-784
-785
-785
-786
-787
-788
-789
-789
-789
-788
-787
-786
-786
-787
-788
-790
-790
-789
-789
-788
-787
-786
-786
-787
-788
-789
-790
-790
-789
-787
-787
-787
-786
-787
-789
-790
-790
-789
-788
-787
-786
-787
-787
-788
-789
-790
-790
-789
-788
-788
-787
-787
-787
-789
-789
-790
-791
-791
-790
-789
-788
-786
-787
-788
-789
-789
-789
-788
-786
-784
-782
-777
-774
-774
-775
-776
-776
-776
-775
-774
-776
-776
-776
-776
-775
-773
-772
-771
-770
-767
-767
-768
-771
-773
-774
-774
-776
-776
-776
-776
-778
-780
-782
-783
-783
-783
-785
-785
-785
-785
-785
-786
-788
-788
-790
-791
-790
-790
-789
-788
-787
-787
-789
-790
-792
-792
-791
-791
-790
-789
-788
-788
-789
-790
-790
-791
-791
-790
-789
-788
-787
-786
-786
-786
-785
-785
-784
-784
-786
-781
-763
-738
-705
-671
-636
-600
-569
-544
-543
-592
-652
-702
-741
-757
-761
-766
-774
-788
-807
-821
-833
-844
-850
-851
-852
-851
-849
-845
-842
-833
-822
-813
-806
-800
-796
-793
-788
-785
-782
-780
-780
-779
-779
-779
-779
-778
-778
-776
-774
-773
-772
-773
-773
-774
-774
-773
-773
-771
-769
-768
-768
-767
-768
-769
-769
-769
-768
-767
-765
-764
-763
-762
-763
-764
-763
-763
-763
-761
-760
-758
-757
-756
-756
-757
-757
-757
-755
-753
-751
-750
-748
-747
-746
-747
-745
-745
-743
-739
-736
-734
-732
-731
-729
-729
-727
-725
-722
-720
-716
-714
-712
-711
-710
-709
-708
-707
-705
-703
-701
-699
-698
-698
-699
-699
-700
-700
-699
-699
-698
-699
-700
-703
-707
-710
-713
-716
-717
-719
-721
-724
-728
-731
-735
-738
-742
-745
-747
-748
-750
-752
-754
-757
-761
-764
-766
-768
-769
-770
-770
-771
-772
-774
-777
-778
-778
-779
-779
-779
-778
-778
-778
-779
-780
-781
-782
-782
-781
-780
-779
-778
-778
-779
-781
-782
-781
-781
-780
-778
-777
-777
-777
-778
-779
-780
-780
-780
-780
-779
-778
-777
-776
-778
-780
-781
-781
-781
-780
-779
-779
-779
-779
-780
-781
-781
-782
-782
-781
-781
-780
-780
-781
-782
-782
-783
-784
-784
-782
-781
-781
-781
-782
-784
-785
-786
-786
-785
-784
-784
-782
-783
-784
-785
-786
-786
-787
-786
-785
-784
-783
-783
-784
-786
-787
-788
-788
-787
-786
-785
-784
-784
-786
-788
-789
-790
-789
-788
-787
-784
-784
-784
-786
-788
-789
-790
-790
-789
-787
-785
-785
-787
-787
-788
-788
-790
-790
-790
-788
-787
-787
-787
-788
-789
-790
-790
-790
-789
-788
-787
-788
-788
-789
-789
-790
-791
-790
-789
-789
-788
-787
-787
-789
-790
-791
-791
-791
-790
-789
-788
-789
-788
-788
-789
-789
-788
-787
-782
-777
-775
-775
-775
-776
-778
-780
-780
-782
-781
-779
-777
-775
-772
-771
-772
-773
-771
-771
-772
-772
-772
-772
-773
-775
-777
-778
-780
-782
-782
-783
-782
-782
-782
-784
-786
-788
-790
-791
-791
-789
-788
-789
-790
-791
-793
-793
-794
-793
-791
-790
-790
-790
-791
-794
-795
-795
-795
-795
-793
-791
-790
-790
-791
-791
-792
-794
-793
-792
-791
-789
-788
-786
-785
-786
-787
-789
-788
-774
-751
-721
-689
-655
-622
-594
-573
-560
-596
-653
-697
-733
-754
-758
-761
-768
-780
-798
-814
-824
-834
-843
-846
-848
-849
-850
-849
-848
-844
-835
-825
-815
-808
-803
-797
-794
-792
-790
-789
-787
-785
-783
-783
-783
-783
-783
-784
-783
-782
-781
-779
-777
-776
-775
-776
-778
-778
-778
-777
-774
-774
-772
-772
-772
-772
-773
-772
-773
-773
-771
-769
-768
-766
-767
-769
-769
-770
-769
-769
-766
-763
-762
-761
-761
-762
-763
-762
-762
-760
-757
-754
-753
-752
-751
-752
-750
-749
-748
-745
-742
-738
-735
-733
-733
-733
-731
-730
-728
-727
-724
-721
-718
-716
-715
-715
-715
-714
-714
-712
-710
-708
-708
-707
-707
-709
-711
-710
-711
-711
-711
-712
-712
-715
-718
-722
-725
-728
-731
-733
-734
-736
-737
-739
-744
-748
-751
-754
-757
-758
-759
-760
-762
-764
-766
-770
-772
-774
-775
-775
-775
-775
-775
-776
-779
-781
-783
-784
-784
-783
-781
-780
-781
-781
-782
-784
-785
-785
-786
-784
-783
-782
-780
-781
-782
-783
-783
-783
-783
-782
-781
-780
-780
-780
-781
-783
-783
-784
-783
-782
-780
-779
-779
-779
-780
-782
-783
-783
-783
-782
-782
-780
-779
-779
-780
-783
-783
-784
-784
-782
-782
-781
-780
-781
-782
-783
-784
-785
-785
-784
-783
-782
-782
-783
-785
-785
-786
-787
-787
-786
-785
-784
-783
-784
-785
-786
-787
-787
-788
-787
-786
-785
-785
-785
-787
-788
-788
-789
-788
-787
-786
-786
-786
-787
-787
-788
-790
-790
-790
-789
-788
-787
-786
-786
-787
-789
-790
-790
-790
-789
-787
-787
-786
-787
-788
-790
-791
-790
-789
-788
-787
-787
-787
-788
-790
-790
-791
-791
-791
-789
-788
-788
-788
-788
-789
-790
-791
-791
-791
-790
-789
-788
-788
-789
-790
-791
-792
-793
-791
-789
-788
-788
-789
-789
-789
-790
-790
-788
-784
-780
-778
-776
-776
-777
-779
-780
-780
-781
-782
-781
-779
-775
-772
-771
-772
-772
-772
-773
-774
-775
-774
-775
-775
-777
-778
-779
-780
-783
-784
-783
-783
-783
-783
-785
-786
-788
-789
-790
-790
-790
-790
-790
-790
-791
-792
-793
-793
-793
-792
-790
-790
-790
-790
-792
-794
-794
-794
-793
-792
-791
-790
-789
-790
-792
-793
-793
-793
-792
-791
-789
-787
-784
-784
-785
-785
-787
-788
-781
-763
-737
-708
-677
-645
-616
-595
-575
-588
-637
-680
-715
-744
-754
-756
-761
-770
-784
-801
-813
-824
-833
-838
-842
-846
-848
-848
-846
-843
-839
-830
-820
-811
-805
-800
-797
-795
-793
-791
-788
-786
-783
-782
-782
-782
-783
-782
-782
-782
-780
-779
-778
-777
-776
-777
-778
-778
-779
-778
-776
-775
-773
-772
-772
-773
-773
-774
-775
-774
-771
-770
-769
-768
-767
-768
-769
-769
-769
-769
-767
-765
-763
-761
-762
-762
-762
-763
-762
-761
-759
-757
-755
-754
-753
-752
-751
-751
-750
-748
-744
-742
-740
-737
-736
-734
-733
-733
-732
-729
-727
-724
-722
-720
-719
-718
-719
-718
-718
-717
-715
-713
-710
-709
-710
-711
-712
-713
-714
-715
-715
-715
-716
-717
-719
-722
-725
-728
-731
-733
-735
-736
-739
-741
-743
-746
-751
-754
-756
-758
-760
-760
-761
-763
-766
-768
-771
-774
-776
-776
-776
-775
-776
-777
-778
-780
-781
-782
-783
-783
-782
-782
-782
-781
-782
-783
-784
-785
-785
-784
-783
-782
-781
-781
-782
-783
-784
-785
-785
-784
-783
-782
-780
-781
-782
-783
-783
-784
-784
-783
-782
-781
-780
-780
-781
-782
-783
-784
-784
-783
-782
-782
-782
-782
-783
-784
-784
-785
-785
-784
-783
-782
-782
-783
-784
-786
-787
-788
-788
-787
-785
-784
-784
-785
-786
-787
-787
-788
-789
-788
-787
-786
-786
-786
-787
-789
-789
-790
-790
-789
-788
-787
-787
-787
-789
-790
-791
-791
-791
-789
-788
-787
-788
-789
-789
-789
-790
-792
-791
-790
-789
-789
-788
-788
-790
-791
-792
-792
-792
-791
-790
-789
-789
-789
-791
-792
-793
-793
-792
-792
-790
-790
-790
-791
-791
-792
-793
-793
-793
-792
-790
-789
-790
-790
-792
-793
-794
-794
-794
-793
-791
-790
-790
-791
-792
-794
-794
-794
-793
-791
-791
-790
-791
-791
-793
-793
-794
-793
-793
-791
-790
-789
-788
-786
-784
-783
-782
-782
-781
-779
-779
-778
-778
-780
-783
-783
-783
-780
-777
-774
-773
-771
-770
-772
-775
-778
-779
-779
-779
-779
-778
-778
-780
-782
-785
-788
-790
-789
-786
-787
-786
-786
-788
-790
-792
-793
-795
-795
-794
-793
-793
-792
-793
-794
-794
-796
-795
-795
-795
-795
-793
-793
-793
-794
-795
-795
-797
-796
-795
-794
-793
-793
-793
-794
-795
-795
-793
-791
-788
-787
-786
-785
-787
-783
-766
-742
-711
-679
-642
-607
-578
-553
-554
-607
-666
-713
-749
-763
-765
-768
-776
-792
-812
-828
-840
-851
-857
-858
-856
-854
-851
-849
-846
-840
-831
-823
-815
-807
-800
-795
-791
-789
-788
-787
-788
-787
-786
-786
-784
-782
-781
-781
-781
-781
-781
-781
-781
-781
-779
-777
-776
-775
-776
-776
-777
-777
-777
-776
-774
-773
-772
-771
-771
-772
-773
-773
-772
-771
-770
-768
-766
-766
-766
-767
-767
-767
-766
-764
-762
-760
-759
-758
-759
-759
-757
-757
-756
-753
-750
-748
-746
-744
-743
-743
-742
-741
-738
-735
-732
-730
-727
-724
-724
-723
-722
-720
-718
-715
-713
-710
-708
-708
-708
-708
-708
-707
-706
-705
-704
-703
-703
-704
-705
-707
-709
-710
-712
-714
-715
-717
-718
-723
-728
-731
-734
-738
-740
-742
-744
-746
-749
-752
-755
-758
-761
-765
-767
-768
-769
-769
-771
-773
-776
-778
-780
-781
-782
-782
-782
-781
-782
-783
-784
-786
-787
-787
-787
-785
-785
-784
-784
-785
-787
-788
-788
-788
-787
-785
-784
-784
-783
-784
-785
-787
-787
-786
-784
-783
-783
-782
-782
-783
-784
-785
-786
-786
-785
-783
-783
-783
-783
-783
-785
-785
-786
-786
-785
-785
-783
-782
-783
-785
-786
-786
-787
-788
-787
-786
-785
-785
-784
-785
-787
-789
-789
-789
-788
-788
-787
-786
-786
-787
-788
-790
-789
-789
-789
-788
-788
-788
-789
-789
-789
-790
-791
-791
-790
-790
-789
-789
-789
-790
-791
-791
-792
-791
-791
-790
-789
-788
-789
-790
-792
-793
-793
-792
-791
-789
-788
-788
-788
-789
-791
-792
-793
-793
-792
-790
-789
-789
-790
-792
-792
-792
-793
-792
-791
-790
-790
-790
-790
-791
-793
-793
-793
-793
-792
-790
-790
-789
-790
-791
-792
-793
-793
-793
-791
-790
-790
-790
-791
-792
-792
-793
-794
-794
-793
-791
-790
-790
-791
-792
-793
-794
-793
-792
-791
-790
-790
-790
-791
-792
-793
-794
-793
-792
-791
-789
-787
-786
-784
-782
-781
-782
-781
-779
-779
-778
-777
-779
-781
-781
-782
-781
-779
-775
-773
-772
-770
-770
-772
-776
-778
-779
-779
-779
-779
-778
-778
-780
-783
-786
-787
-787
-786
-785
-784
-785
-785
-788
-790
-793
-794
-794
-795
-793
-792
-791
-792
-791
-792
-793
-794
-795
-794
-792
-792
-790
-791
-792
-794
-795
-795
-794
-794
-793
-792
-791
-791
-791
-792
-792
-791
-790
-788
-786
-784
-782
-784
-786
-776
-756
-729
-698
-665
-630
-597
-572
-554
-581
-638
-687
-727
-754
-760
-761
-766
-776
-792
-810
-823
-835
-845
-850
-851
-850
-849
-847
-844
-843
-837
-828
-819
-812
-806
-799
-794
-790
-788
-787
-786
-786
-787
-786
-785
-784
-782
-780
-779
-780
-781
-781
-780
-780
-779
-777
-776
-776
-775
-775
-774
-774
-775
-775
-775
-774
-773
-772
-771
-771
-771
-772
-772
-771
-769
-768
-766
-765
-765
-765
-766
-767
-766
-764
-763
-762
-760
-759
-758
-759
-758
-758
-757
-756
-753
-751
-748
-747
-745
-744
-744
-743
-741
-739
-736
-733
-730
-729
-727
-725
-724
-724
-722
-720
-718
-715
-714
-713
-711
-710
-710
-710
-710
-710
-708
-707
-704
-704
-705
-707
-709
-711
-713
-714
-715
-717
-719
-720
-724
-727
-730
-734
-736
-739
-741
-743
-745
-747
-750
-754
-757
-760
-763
-764
-765
-766
-767
-768
-770
-773
-776
-777
-779
-779
-780
-779
-779
-779
-781
-781
-782
-783
-784
-785
-783
-782
-781
-782
-783
-784
-785
-786
-786
-784
-783
-782
-782
-781
-781
-782
-782
-784
-785
-785
-783
-782
-780
-780
-781
-782
-782
-783
-783
-783
-782
-781
-781
-781
-782
-783
-784
-784
-785
-785
-782
-781
-781
-782
-783
-784
-786
-786
-785
-784
-783
-782
-781
-782
-783
-784
-786
-788
-788
-787
-785
-783
-784
-785
-785
-786
-788
-787
-788
-787
-786
-785
-785
-786
-786
-787
-788
-789
-790
-789
-787
-785
-785
-786
-787
-789
-789
-790
-789
-788
-787
-787
-787
-788
-789
-790
-791
-791
-791
-790
-788
-787
-786
-787
-788
-790
-790
-791
-791
-789
-787
-786
-786
-787
-789
-790
-791
-792
-791
-790
-788
-787
-787
-788
-790
-791
-793
-793
-792
-791
-789
-788
-787
-788
-789
-790
-789
-790
-790
-790
-789
-789
-789
-790
-791
-791
-792
-792
-791
-791
-789
-788
-787
-788
-790
-791
-792
-792
-791
-790
-789
-788
-788
-787
-788
-790
-791
-792
-791
-791
-790
-789
-787
-787
-786
-784
-782
-782
-780
-779
-779
-778
-778
-780
-782
-783
-782
-780
-777
-773
-772
-771
-770
-772
-773
-776
-778
-780
-778
-777
-777
-777
-777
-780
-783
-785
-786
-787
-785
-784
-785
-785
-786
-788
-791
-793
-793
-792
-792
-791
-790
-791
-791
-792
-793
-793
-794
-794
-794
-792
-791
-791
-791
-792
-793
-794
-795
-794
-793
-791
-790
-791
-791
-791
-793
-793
-792
-789
-787
-784
-782
-783
-786
-785
-771
-749
-721
-691
-657
-623
-596
-573
-568
-612
-662
-703
-739
-757
-758
-760
-767
-778
-796
-811
-823
-835
-842
-847
-849
-849
-848
-846
-844
-841
-835
-826
-817
-810
-804
-798
-793
-790
-789
-788
-787
-787
-786
-785
-784
-782
-781
-780
-780
-780
-781
-781
-781
-779
-778
-776
-775
-775
-775
-775
-776
-777
-777
-775
-774
-772
-771
-771
-771
-772
-772
-773
-772
-771
-769
-768
-767
-767
-767
-767
-767
-767
-766
-765
-763
-761
-760
-759
-759
-759
-759
-759
-757
-755
-753
-751
-749
-748
-747
-746
-746
-745
-742
-739
-736
-733
-732
-730
-729
-727
-726
-725
-723
-721
-718
-716
-715
-714
-713
-713
-714
-714
-713
-711
-709
-708
-709
-709
-710
-712
-713
-715
-716
-717
-717
-719
-721
-723
-727
-731
-734
-737
-740
-742
-743
-745
-748
-751
-755
-758
-761
-763
-765
-766
-767
-768
-770
-772
-774
-777
-779
-780
-780
-780
-780
-780
-780
-781
-783
-784
-786
-786
-786
-784
-783
-783
-783
-783
-784
-785
-786
-786
-786
-785
-783
-783
-783
-783
-784
-785
-785
-785
-785
-784
-783
-782
-782
-783
-784
-785
-786
-786
-786
-784
-783
-783
-784
-784
-785
-786
-787
-787
-787
-785
-784
-784
-784
-785
-786
-787
-789
-789
-787
-787
-786
-786
-786
-787
-788
-789
-790
-790
-789
-788
-787
-787
-787
-788
-789
-790
-791
-791
-790
-789
-789
-789
-788
-790
-791
-792
-792
-791
-791
-791
-790
-789
-789
-790
-792
-792
-793
-793
-792
-791
-789
-789
-790
-791
-792
-792
-793
-793
-792
-791
-790
-791
-791
-792
-792
-793
-794
-793
-793
-791
-790
-790
-791
-792
-793
-794
-794
-794
-793
-791
-790
-791
-791
-792
-793
-794
-794
-794
-793
-792
-791
-791
-792
-793
-794
-794
-795
-794
-792
-792
-791
-791
-792
-794
-794
-794
-795
-794
-794
-793
-791
-791
-792
-793
-794
-794
-795
-794
-793
-792
-792
-791
-792
-793
-794
-795
-795
-794
-793
-792
-791
-792
-792
-794
-794
-793
-792
-790
-786
-781
-779
-779
-779
-780
-782
-783
-782
-783
-783
-782
-780
-779
-776
-776
-777
-776
-775
-775
-775
-776
-777
-778
-778
-780
-782
-782
-783
-784
-785
-785
-786
-786
-786
-788
-789
-790
-791
-792
-792
-792
-792
-792
-793
-794
-795
-795
-796
-795
-794
-793
-793
-793
-794
-795
-797
-796
-796
-795
-794
-792
-792
-792
-794
-795
-795
-795
-795
-794
-793
-791
-789
-788
-787
-788
-788
-789
-790
-782
-762
-736
-703
-669
-634
-600
-573
-549
-555
-608
-664
-711
-747
-761
-765
-770
-780
-797
-816
-829
-840
-849
-854
-855
-855
-854
-853
-851
-848
-840
-828
-817
-809
-804
-800
-797
-794
-791
-789
-787
-784
-782
-782
-782
-782
-783
-782
-782
-781
-780
-778
-776
-776
-776
-777
-777
-777
-777
-776
-774
-773
-772
-772
-772
-772
-773
-773
-772
-771
-770
-768
-767
-767
-767
-768
-768
-768
-766
-765
-764
-762
-761
-760
-760
-760
-761
-761
-759
-757
-756
-753
-751
-751
-750
-749
-749
-747
-746
-742
-740
-738
-735
-733
-732
-731
-730
-729
-726
-723
-720
-716
-714
-713
-712
-711
-710
-709
-707
-705
-703
-701
-699
-699
-700
-700
-701
-700
-700
-699
-699
-700
-701
-703
-706
-709
-712
-715
-718
-720
-721
-723
-727
-730
-734
-738
-742
-745
-747
-749
-750
-753
-756
-758
-760
-764
-766
-768
-769
-771
-770
-771
-772
-774
-776
-778
-779
-780
-780
-778
-778
-777
-778
-779
-780
-782
-782
-783
-782
-781
-780
-779
-779
-780
-781
-781
-782
-782
-781
-780
-779
-778
-778
-779
-781
-781
-782
-782
-781
-780
-778
-778
-779
-779
-780
-782
-781
-781
-782
-781
-780
-779
-780
-781
-782
-783
-784
-783
-782
-781
-781
-780
-780
-781
-782
-784
-785
-784
-784
-783
-782
-781
-782
-782
-784
-785
-785
-785
-785
-784
-784
-783
-784
-785
-787
-787
-787
-787
-786
-785
-784
-784
-784
-785
-786
-787
-787
-787
-787
-786
-785
-785
-785
-786
-787
-788
-788
-787
-787
-786
-784
-784
-785
-787
-788
-789
-789
-788
-787
-786
-785
-785
-785
-787
-788
-788
-789
-788
-787
-785
-786
-786
-787
-788
-789
-790
-788
-787
-787
-787
-785
-786
-786
-788
-789
-790
-790
-789
-787
-786
-785
-785
-787
-789
-789
-790
-789
-788
-787
-786
-785
-786
-788
-788
-788
-789
-790
-789
-787
-786
-786
-786
-787
-787
-788
-788
-789
-789
-788
-787
-786
-786
-787
-787
-788
-789
-790
-789
-788
-787
-785
-785
-785
-786
-786
-785
-782
-779
-775
-774
-773
-774
-775
-776
-778
-780
-780
-778
-774
-771
-769
-769
-769
-768
-769
-771
-773
-773
-772
-772
-772
-773
-774
-776
-780
-782
-782
-782
-781
-780
-780
-781
-781
-784
-786
-788
-788
-787
-787
-787
-787
-787
-789
-789
-790
-790
-790
-788
-788
-787
-786
-787
-788
-790
-790
-790
-788
-788
-787
-786
-787
-787
-788
-789
-790
-790
-788
-786
-783
-780
-780
-780
-781
-784
-779
-762
-735
-703
-668
-634
-600
-574
-552
-559
-612
-665
-706
-739
-750
-752
-757
-767
-782
-802
-816
-828
-838
-843
-844
-844
-844
-843
-844
-843
-837
-827
-818
-808
-801
-794
-790
-787
-786
-785
-784
-783
-781
-780
-778
-776
-775
-775
-777
-778
-777
-776
-775
-773
-772
-772
-772
-771
-772
-772
-773
-772
-771
-769
-767
-766
-765
-766
-768
-769
-768
-766
-766
-765
-763
-762
-761
-762
-763
-763
-763
-763
-761
-760
-757
-757
-757
-757
-757
-756
-756
-754
-752
-750
-748
-746
-745
-745
-744
-744
-742
-740
-738
-734
-732
-729
-728
-727
-726
-725
-723
-721
-717
-714
-712
-711
-710
-710
-710
-709
-708
-706
-704
-702
-701
-700
-701
-701
-702
-703
-705
-705
-705
-705
-706
-709
-711
-714
-718
-721
-724
-726
-728
-729
-731
-733
-737
-741
-745
-748
-751
-752
-753
-755
-757
-760
-762
-764
-767
-769
-770
-770
-771
-771
-770
-771
-772
-774
-776
-777
-777
-777
-776
-775
-775
-775
-776
-778
-779
-779
-779
-778
-777
-776
-776
-776
-776
-776
-778
-778
-778
-778
-776
-775
-775
-775
-776
-776
-778
-778
-778
-777
-777
-776
-775
-775
-776
-778
-779
-779
-779
-778
-776
-776
-775
-776
-778
-779
-780
-780
-780
-779
-777
-775
-775
-776
-777
-779
-780
-781
-781
-779
-778
-777
-777
-777
-779
-781
-782
-783
-783
-781
-779
-778
-778
-779
-780
-782
-783
-782
-781
-781
-780
-780
-781
-782
-782
-783
-783
-784
-783
-782
-781
-780
-780
-782
-782
-784
-785
-784
-783
-782
-780
-779
-780
-781
-782
-783
-784
-784
-783
-782
-781
-780
-780
-781
-783
-783
-784
-784
-783
-783
-781
-780
-782
-783
-783
-784
-784
-784
-782
-781
-780
-781
-781
-783
-784
-784
-784
-784
-784
-783
-782
-781
-781
-782
-783
-784
-785
-785
-784
-782
-780
-780
-781
-782
-783
-784
-786
-786
-784
-782
-781
-780
-780
-781
-783
-782
-781
-779
-775
-771
-769
-768
-769
-770
-772
-774
-774
-775
-773
-771
-768
-765
-764
-765
-766
-765
-766
-766
-767
-767
-767
-767
-768
-770
-772
-773
-776
-777
-776
-776
-774
-773
-774
-777
-780
-782
-783
-784
-783
-782
-781
-781
-781
-783
-784
-785
-785
-785
-784
-783
-782
-783
-783
-785
-786
-787
-786
-786
-784
-783
-782
-783
-783
-783
-784
-785
-785
-784
-782
-780
-777
-775
-776
-778
-780
-781
-771
-750
-721
-691
-658
-625
-596
-574
-558
-584
-636
-678
-714
-740
-746
-749
-756
-766
-782
-799
-811
-822
-830
-834
-837
-839
-840
-839
-838
-837
-831
-821
-810
-802
-795
-790
-787
-785
-783
-781
-779
-778
-776
-775
-773
-773
-773
-774
-775
-774
-773
-772
-769
-768
-767
-767
-768
-768
-769
-769
-768
-768
-766
-764
-763
-763
-763
-764
-765
-766
-764
-762
-761
-760
-759
-759
-760
-760
-761
-760
-759
-758
-756
-754
-753
-753
-754
-755
-755
-753
-752
-750
-747
-745
-744
-743
-743
-743
-742
-740
-738
-736
-732
-730
-727
-726
-726
-725
-724
-722
-720
-718
-714
-711
-710
-709
-709
-709
-709
-708
-707
-704
-702
-701
-700
-701
-702
-703
-704
-704
-705
-704
-705
-705
-707
-710
-713
-717
-720
-722
-723
-725
-726
-729
-732
-735
-739
-743
-747
-749
-750
-751
-752
-754
-757
-759
-762
-765
-766
-768
-768
-767
-767
-768
-769
-771
-774
-775
-776
-776
-775
-774
-773
-773
-773
-774
-776
-777
-778
-777
-776
-774
-773
-773
-772
-773
-775
-776
-777
-776
-775
-774
-773
-773
-773
-774
-775
-776
-776
-776
-776
-775
-774
-773
-774
-775
-776
-778
-777
-777
-776
-775
-774
-773
-774
-776
-777
-778
-778
-777
-777
-776
-775
-775
-776
-778
-779
-780
-780
-780
-778
-777
-777
-777
-778
-779
-780
-781
-781
-781
-779
-778
-778
-778
-779
-780
-781
-781
-782
-782
-781
-780
-778
-779
-779
-780
-781
-782
-783
-782
-782
-780
-779
-779
-779
-781
-783
-782
-783
-782
-782
-781
-779
-779
-780
-781
-783
-783
-783
-782
-781
-780
-779
-780
-781
-782
-783
-784
-784
-783
-782
-780
-780
-780
-781
-783
-784
-784
-784
-784
-783
-781
-780
-780
-782
-783
-784
-785
-784
-783
-782
-781
-780
-780
-781
-782
-783
-784
-784
-783
-782
-780
-780
-780
-782
-783
-784
-785
-784
-783
-781
-779
-778
-778
-777
-776
-774
-773
-771
-769
-768
-767
-768
-769
-771
-773
-774
-772
-769
-766
-763
-762
-761
-761
-762
-765
-768
-770
-769
-768
-768
-768
-767
-769
-773
-776
-778
-778
-777
-776
-776
-776
-777
-778
-780
-783
-785
-785
-785
-784
-782
-781
-781
-783
-784
-785
-786
-786
-785
-783
-782
-782
-782
-782
-784
-785
-786
-785
-785
-784
-782
-781
-781
-782
-783
-784
-784
-783
-779
-777
-776
-775
-777
-774
-759
-736
-705
-670
-633
-595
-562
-536
-530
-575
-635
-688
-731
-750
-753
-755
-762
-776
-796
-813
-828
-840
-846
-848
-846
-843
-840
-838
-835
-830
-820
-812
-804
-797
-791
-785
-780
-777
-776
-776
-776
-776
-775
-774
-773
-771
-769
-767
-767
-768
-769
-769
-770
-768
-767
-765
-764
-763
-762
-763
-764
-764
-764
-764
-762
-760
-758
-758
-758
-758
-759
-760
-759
-758
-756
-756
-753
-753
-752
-752
-754
-754
-754
-752
-750
-747
-746
-745
-744
-744
-744
-744
-743
-740
-738
-735
-733
-731
-731
-730
-728
-728
-726
-723
-720
-717
-713
-711
-710
-709
-708
-706
-704
-702
-699
-696
-693
-692
-692
-692
-692
-692
-691
-689
-687
-686
-685
-685
-686
-688
-690
-692
-694
-695
-695
-696
-699
-701
-705
-710
-714
-718
-721
-724
-725
-727
-730
-732
-736
-740
-743
-746
-748
-750
-750
-751
-753
-755
-757
-760
-763
-765
-766
-766
-765
-765
-764
-765
-767
-769
-770
-771
-771
-770
-769
-769
-768
-768
-769
-770
-771
-772
-772
-771
-769
-767
-767
-767
-769
-770
-771
-771
-770
-770
-768
-767
-767
-767
-769
-770
-771
-771
-771
-769
-767
-766
-767
-767
-768
-770
-771
-772
-770
-770
-769
-769
-769
-769
-770
-772
-773
-773
-772
-771
-770
-769
-769
-770
-771
-772
-773
-774
-773
-772
-771
-771
-771
-772
-774
-775
-776
-775
-774
-772
-772
-771
-771
-772
-773
-775
-776
-776
-775
-774
-773
-772
-772
-774
-775
-776
-776
-777
-776
-774
-773
-773
-773
-774
-776
-778
-779
-777
-775
-773
-772
-771
-773
-774
-776
-777
-777
-777
-776
-773
-773
-772
-773
-775
-776
-777
-778
-777
-775
-774
-774
-773
-773
-775
-776
-777
-778
-778
-777
-776
-774
-773
-774
-776
-777
-778
-778
-778
-777
-775
-774
-774
-775
-776
-778
-779
-779
-778
-777
-775
-772
-771
-770
-768
-767
-767
-767
-765
-764
-763
-762
-763
-765
-767
-767
-766
-764
-761
-760
-758
-755
-755
-756
-760
-762
-764
-763
-764
-764
-763
-763
-765
-768
-771
-774
-773
-771
-772
-772
-772
-772
-773
-775
-777
-778
-778
-779
-779
-778
-777
-776
-776
-776
-778
-779
-781
-781
-780
-779
-777
-776
-777
-777
-778
-779
-780
-781
-780
-779
-778
-776
-776
-777
-777
-777
-776
-774
-773
-770
-771
-772
-765
-749
-723
-693
-661
-626
-593
-566
-544
-554
-608
-660
-702
-735
-746
-747
-751
-758
-772
-791
-804
-817
-830
-835
-838
-838
-837
-833
-830
-827
-821
-813
-805
-798
-792
-787
-782
-778
-774
-771
-770
-770
-770
-771
-771
-770
-769
-767
-765
-765
-763
-763
-764
-765
-767
-766
-765
-763
-761
-760
-759
-760
-761
-762
-762
-761
-759
-757
-755
-755
-754
-755
-757
-757
-758
-756
-755
-753
-751
-750
-750
-751
-752
-751
-751
-750
-748
-746
-744
-742
-743
-743
-744
-743
-741
-740
-738
-735
-732
-730
-730
-730
-728
-727
-725
-722
-721
-717
-714
-711
-711
-711
-711
-709
-708
-706
-702
-699
-697
-696
-695
-696
-697
-697
-697
-696
-694
-692
-692
-693
-694
-696
-698
-701
-702
-704
-705
-706
-708
-710
-714
-719
-722
-726
-727
-728
-731
-732
-734
-737
-740
-745
-748
-750
-752
-753
-755
-756
-757
-758
-760
-762
-764
-765
-766
-765
-764
-764
-765
-765
-767
-768
-770
-770
-770
-770
-769
-767
-767
-766
-767
-769
-770
-770
-770
-770
-768
-767
-766
-766
-768
-769
-769
-770
-770
-769
-767
-766
-766
-767
-768
-769
-769
-769
-769
-769
-767
-766
-766
-767
-767
-768
-770
-770
-770
-769
-768
-767
-767
-767
-768
-769
-771
-771
-771
-769
-768
-768
-768
-769
-771
-772
-772
-772
-771
-771
-770
-770
-770
-770
-772
-774
-774
-774
-774
-772
-771
-770
-771
-771
-773
-775
-774
-774
-774
-773
-773
-772
-772
-773
-774
-776
-776
-776
-775
-774
-773
-773
-773
-773
-774
-775
-777
-776
-775
-774
-773
-772
-772
-774
-776
-777
-777
-777
-775
-773
-772
-772
-772
-773
-775
-776
-778
-777
-776
-774
-773
-773
-773
-774
-776
-777
-777
-776
-775
-774
-773
-772
-774
-776
-776
-777
-777
-777
-777
-775
-774
-774
-775
-776
-778
-778
-779
-778
-777
-775
-775
-775
-775
-776
-777
-778
-778
-778
-775
-772
-771
-768
-765
-764
-765
-766
-766
-767
-765
-763
-764
-764
-765
-766
-766
-764
-762
-760
-759
-756
-755
-756
-759
-762
-764
-765
-765
-765
-764
-764
-765
-767
-769
-772
-772
-772
-773
-773
-773
-773
-774
-775
-776
-777
-778
-779
-779
-779
-778
-776
-776
-776
-777
-778
-779
-779
-779
-779
-778
-777
-776
-776
-777
-778
-779
-780
-779
-779
-778
-776
-776
-776
-775
-774
-774
-773
-774
-772
-772
-772
-762
-743
-717
-686
-654
-621
-589
-563
-541
-555
-611
-662
-703
-735
-744
-748
-754
-762
-776
-793
-806
-818
-829
-834
-837
-839
-838
-835
-832
-829
-821
-811
-803
-797
-792
-788
-783
-779
-774
-772
-770
-768
-770
-770
-770
-770
-770
-767
-766
-764
-763
-763
-764
-765
-765
-765
-764
-763
-761
-760
-759
-758
-759
-760
-761
-761
-760
-758
-757
-755
-754
-754
-755
-756
-757
-757
-755
-753
-752
-750
-749
-750
-750
-751
-751
-750
-749
-747
-745
-743
-741
-741
-742
-741
-741
-740
-737
-735
-732
-729
-728
-727
-728
-727
-724
-723
-720
-717
-714
-711
-709
-709
-708
-707
-707
-705
-703
-700
-697
-695
-694
-694
-695
-695
-695
-694
-693
-692
-690
-690
-691
-692
-695
-697
-700
-702
-704
-705
-706
-708
-711
-715
-719
-723
-727
-729
-731
-732
-733
-736
-739
-743
-746
-750
-752
-753
-754
-755
-755
-756
-757
-760
-763
-764
-766
-766
-765
-765
-765
-765
-765
-767
-768
-770
-772
-771
-769
-767
-766
-765
-765
-767
-769
-770
-770
-769
-769
-767
-765
-765
-766
-767
-768
-769
-769
-769
-768
-767
-766
-766
-766
-768
-769
-770
-771
-771
-770
-769
-768
-768
-768
-770
-771
-772
-772
-772
-771
-769
-768
-769
-770
-771
-772
-773
-774
-773
-772
-771
-770
-769
-770
-772
-773
-774
-774
-774
-773
-772
-771
-771
-772
-773
-774
-775
-775
-774
-773
-772
-771
-771
-773
-774
-775
-776
-777
-775
-774
-773
-772
-772
-773
-775
-776
-776
-776
-775
-774
-773
-773
-773
-773
-775
-776
-776
-776
-775
-775
-773
-771
-772
-773
-774
-775
-776
-776
-775
-774
-773
-772
-773
-774
-775
-776
-777
-777
-776
-775
-774
-773
-774
-774
-774
-777
-777
-776
-775
-774
-773
-773
-773
-774
-775
-777
-777
-777
-776
-774
-774
-773
-773
-775
-776
-776
-777
-777
-775
-774
-774
-773
-774
-775
-776
-777
-777
-776
-776
-775
-773
-773
-773
-772
-771
-770
-767
-765
-763
-762
-761
-761
-761
-762
-765
-767
-767
-766
-763
-758
-755
-755
-756
-756
-758
-760
-762
-762
-761
-760
-759
-759
-760
-762
-766
-768
-770
-771
-769
-767
-767
-767
-769
-772
-774
-776
-777
-776
-776
-775
-774
-773
-774
-776
-778
-778
-777
-776
-775
-775
-774
-773
-775
-776
-777
-778
-778
-777
-776
-774
-774
-774
-775
-776
-777
-777
-776
-774
-770
-768
-767
-767
-770
-772
-765
-746
-719
-684
-647
-609
-573
-545
-524
-536
-594
-652
-700
-733
-742
-744
-749
-759
-777
-797
-811
-824
-833
-836
-836
-833
-833
-831
-830
-828
-820
-811
-802
-793
-786
-779
-776
-773
-771
-771
-770
-769
-768
-766
-764
-763
-762
-762
-763
-764
-764
-763
-764
-762
-759
-757
-757
-757
-757
-758
-757
-757
-756
-755
-753
-752
-752
-753
-754
-754
-754
-754
-753
-751
-750
-748
-747
-748
-748
-749
-749
-748
-748
-746
-744
-742
-741
-741
-742
-742
-740
-739
-738
-736
-733
-731
-730
-728
-728
-728
-727
-724
-722
-719
-716
-713
-712
-710
-709
-709
-708
-706
-703
-699
-696
-693
-692
-692
-692
-692
-692
-691
-689
-686
-684
-683
-683
-684
-685
-687
-688
-689
-689
-690
-690
-692
-693
-697
-701
-705
-709
-711
-713
-715
-717
-720
-723
-726
-731
-735
-738
-740
-741
-742
-743
-744
-747
-750
-753
-756
-758
-759
-758
-758
-758
-759
-761
-762
-764
-765
-766
-765
-765
-764
-763
-763
-764
-765
-766
-767
-767
-766
-765
-764
-763
-763
-764
-765
-766
-767
-767
-767
-765
-765
-764
-763
-763
-765
-766
-767
-767
-766
-765
-764
-763
-763
-764
-765
-766
-767
-768
-768
-767
-766
-764
-765
-765
-766
-767
-768
-768
-768
-767
-766
-766
-766
-767
-769
-769
-770
-770
-769
-768
-767
-767
-767
-767
-769
-771
-772
-772
-771
-769
-768
-767
-768
-769
-770
-772
-772
-771
-771
-770
-769
-769
-770
-771
-771
-772
-772
-773
-772
-771
-770
-770
-769
-770
-772
-773
-774
-773
-772
-771
-770
-770
-770
-770
-772
-772
-774
-774
-773
-772
-771
-771
-771
-772
-773
-774
-774
-773
-774
-772
-770
-770
-771
-772
-774
-774
-774
-774
-775
-772
-771
-771
-771
-772
-773
-774
-775
-775
-772
-771
-772
-772
-772
-774
-774
-776
-776
-775
-774
-773
-773
-772
-773
-774
-775
-775
-774
-775
-775
-773
-771
-771
-771
-770
-770
-770
-767
-764
-762
-760
-759
-759
-761
-762
-764
-766
-766
-764
-761
-758
-755
-754
-755
-756
-756
-757
-759
-760
-760
-758
-757
-759
-760
-762
-765
-767
-769
-770
-769
-766
-766
-767
-768
-770
-772
-775
-776
-776
-775
-773
-772
-773
-773
-774
-776
-777
-777
-777
-775
-774
-774
-774
-775
-777
-778
-778
-778
-777
-775
-774
-774
-774
-775
-776
-777
-776
-775
-773
-770
-767
-767
-767
-769
-771
-766
-750
-725
-694
-662
-627
-595
-572
-552
-558
-610
-660
-699
-730
-741
-741
-744
-753
-765
-784
-797
-809
-820
-825
-828
-830
-830
-830
-829
-829
-825
-817
-807
-798
-791
-784
-779
-776
-774
-773
-771
-771
-770
-769
-767
-766
-764
-764
-765
-765
-765
-764
-764
-763
-761
-760
-759
-759
-760
-760
-761
-761
-759
-759
-757
-756
-755
-755
-755
-756
-757
-756
-755
-753
-753
-752
-751
-751
-751
-751
-752
-751
-751
-748
-747
-746
-744
-744
-744
-745
-745
-744
-743
-741
-738
-736
-735
-734
-734
-734
-733
-731
-729
-726
-723
-720
-718
-717
-717
-716
-716
-714
-711
-708
-706
-703
-702
-701
-702
-701
-701
-700
-698
-696
-694
-693
-693
-694
-695
-696
-697
-699
-698
-698
-699
-701
-703
-705
-709
-712
-716
-717
-719
-720
-722
-724
-727
-730
-734
-737
-740
-742
-743
-744
-745
-747
-749
-752
-756
-758
-759
-759
-760
-760
-759
-759
-761
-762
-764
-765
-766
-766
-766
-765
-765
-764
-765
-765
-766
-768
-769
-768
-767
-765
-764
-764
-764
-766
-766
-766
-766
-766
-766
-765
-763
-764
-765
-766
-766
-767
-767
-766
-766
-765
-764
-764
-765
-765
-767
-768
-768
-767
-766
-765
-764
-764
-765
-766
-768
-769
-769
-768
-767
-766
-765
-766
-767
-768
-769
-770
-770
-769
-768
-767
-767
-767
-768
-769
-770
-771
-771
-770
-770
-769
-768
-769
-770
-771
-771
-772
-772
-772
-769
-768
-768
-769
-770
-771
-773
-774
-773
-772
-771
-769
-769
-770
-770
-772
-772
-773
-773
-771
-770
-770
-769
-770
-771
-772
-772
-773
-772
-772
-771
-770
-769
-769
-770
-771
-773
-774
-774
-773
-771
-770
-770
-770
-771
-772
-774
-773
-773
-773
-771
-771
-770
-771
-772
-773
-774
-774
-773
-773
-772
-770
-770
-770
-772
-773
-774
-774
-774
-772
-771
-771
-771
-771
-772
-773
-775
-775
-774
-773
-772
-770
-770
-769
-770
-770
-769
-766
-763
-761
-759
-758
-758
-760
-761
-763
-765
-765
-763
-760
-756
-753
-754
-754
-754
-754
-756
-758
-759
-759
-757
-757
-757
-759
-762
-764
-766
-768
-768
-767
-765
-765
-766
-767
-770
-773
-774
-775
-774
-773
-772
-772
-772
-773
-774
-775
-776
-775
-774
-773
-772
-772
-773
-774
-774
-776
-776
-775
-775
-773
-772
-772
-772
-773
-774
-774
-775
-774
-771
-768
-766
-765
-765
-767
-770
-764
-746
-720
-686
-650
-615
-580
-554
-532
-540
-595
-652
-697
-731
-741
-742
-746
-756
-772
-791
-806
-819
-829
-833
-832
-832
-832
-830
-829
-826
-821
-811
-801
-792
-785
-778
-774
-772
-770
-769
-769
-768
-766
-764
-763
-761
-760
-760
-760
-762
-762
-761
-760
-758
-757
-755
-755
-756
-756
-756
-756
-757
-755
-754
-752
-750
-750
-750
-751
-752
-752
-750
-750
-749
-747
-746
-745
-745
-746
-746
-746
-745
-744
-742
-740
-739
-739
-738
-739
-739
-738
-737
-735
-733
-731
-728
-727
-726
-726
-725
-724
-722
-720
-717
-714
-711
-710
-708
-707
-706
-704
-702
-700
-697
-694
-691
-690
-689
-690
-689
-688
-687
-685
-683
-681
-680
-680
-681
-681
-683
-684
-685
-685
-685
-686
-687
-690
-693
-697
-701
-704
-707
-710
-711
-713
-715
-719
-723
-727
-730
-734
-735
-736
-738
-739
-741
-743
-746
-750
-752
-753
-755
-755
-755
-755
-756
-756
-758
-760
-761
-762
-762
-761
-760
-760
-760
-761
-762
-762
-763
-763
-763
-763
-760
-760
-759
-759
-761
-762
-763
-762
-762
-761
-759
-758
-758
-759
-761
-761
-762
-762
-761
-761
-759
-758
-759
-760
-760
-761
-762
-762
-762
-761
-760
-758
-759
-760
-762
-762
-764
-763
-762
-761
-761
-760
-760
-761
-763
-764
-764
-765
-764
-763
-761
-761
-762
-763
-763
-765
-766
-766
-765
-764
-763
-762
-763
-764
-766
-767
-767
-766
-766
-765
-764
-764
-764
-765
-766
-767
-767
-767
-767
-766
-765
-764
-764
-766
-767
-768
-768
-767
-766
-766
-765
-764
-764
-766
-767
-767
-768
-768
-767
-766
-765
-764
-765
-766
-767
-768
-769
-769
-767
-766
-765
-765
-765
-767
-768
-769
-769
-769
-767
-766
-765
-766
-765
-767
-769
-769
-769
-768
-767
-766
-765
-765
-766
-767
-768
-769
-769
-769
-768
-767
-766
-766
-766
-767
-769
-770
-770
-769
-768
-767
-766
-766
-767
-768
-768
-767
-766
-764
-760
-756
-754
-753
-754
-756
-757
-758
-759
-760
-759
-756
-754
-752
-751
-751
-750
-750
-749
-750
-751
-751
-752
-752
-753
-755
-757
-758
-760
-761
-761
-762
-760
-759
-761
-764
-766
-767
-768
-769
-768
-766
-766
-767
-768
-769
-770
-771
-771
-771
-770
-768
-768
-768
-770
-771
-771
-771
-771
-771
-769
-768
-768
-768
-768
-770
-770
-770
-770
-769
-768
-766
-764
-762
-763
-764
-765
-768
-765
-748
-722
-688
-652
-615
-579
-548
-524
-517
-561
-620
-672
-713
-732
-737
-741
-751
-766
-786
-802
-813
-823
-828
-830
-830
-830
-829
-828
-825
-819
-808
-797
-787
-781
-776
-773
-771
-769
-767
-766
-763
-762
-760
-759
-759
-759
-759
-759
-759
-758
-757
-754
-753
-753
-753
-754
-755
-756
-755
-754
-752
-750
-749
-749
-748
-749
-750
-750
-750
-749
-748
-746
-744
-743
-744
-745
-746
-746
-745
-744
-742
-740
-738
-737
-737
-738
-738
-738
-737
-736
-734
-732
-730
-729
-728
-728
-727
-726
-725
-722
-719
-716
-713
-711
-711
-710
-709
-708
-706
-703
-699
-696
-694
-693
-692
-692
-690
-689
-687
-685
-683
-682
-680
-679
-680
-681
-681
-681
-681
-681
-680
-681
-682
-684
-687
-689
-693
-696
-699
-701
-703
-705
-708
-711
-715
-719
-722
-725
-729
-729
-730
-732
-734
-737
-740
-743
-746
-749
-749
-749
-749
-750
-751
-753
-755
-757
-758
-759
-760
-758
-757
-757
-758
-759
-761
-762
-762
-761
-761
-759
-759
-759
-758
-759
-761
-761
-761
-761
-760
-759
-758
-757
-757
-757
-758
-760
-761
-760
-759
-758
-756
-756
-756
-757
-757
-759
-760
-760
-759
-758
-758
-757
-756
-757
-758
-760
-760
-760
-760
-759
-757
-757
-757
-758
-759
-761
-762
-762
-761
-760
-758
-758
-758
-760
-760
-761
-763
-763
-761
-761
-760
-760
-761
-761
-763
-764
-764
-763
-763
-761
-761
-761
-761
-761
-763
-763
-763
-763
-762
-762
-761
-762
-762
-762
-763
-765
-766
-765
-764
-763
-762
-762
-761
-762
-764
-765
-765
-765
-764
-763
-762
-762
-763
-764
-764
-764
-765
-765
-764
-763
-761
-761
-762
-763
-764
-765
-765
-764
-764
-763
-762
-762
-763
-763
-764
-765
-765
-764
-763
-762
-762
-762
-762
-763
-764
-766
-766
-765
-764
-763
-761
-762
-762
-764
-765
-766
-766
-765
-763
-762
-761
-761
-762
-764
-764
-765
-766
-764
-764
-763
-763
-762
-762
-763
-764
-763
-762
-761
-758
-753
-751
-751
-751
-751
-753
-753
-754
-755
-753
-753
-751
-750
-748
-747
-747
-747
-747
-746
-745
-747
-747
-747
-748
-751
-752
-753
-754
-755
-755
-754
-755
-755
-756
-758
-759
-760
-762
-763
-764
-762
-762
-762
-763
-764
-765
-766
-765
-763
-763
-762
-761
-762
-763
-765
-767
-767
-766
-764
-763
-762
-761
-762
-763
-765
-765
-764
-764
-764
-762
-760
-758
-757
-757
-758
-758
-760
-762
-752
-732
-705
-675
-643
-611
-581
-559
-540
-556
-607
-651
-687
-717
-726
-729
-735
-745
-758
-774
-784
-794
-804
-809
-814
-818
-820
-820
-818
-815
-811
-800
-790
-783
-778
-772
-769
-766
-763
-760
-758
-756
-755
-754
-755
-755
-755
-755
-754
-753
-752
-750
-748
-748
-748
-748
-749
-750
-749
-748
-747
-745
-745
-744
-744
-745
-745
-745
-745
-744
-743
-741
-740
-740
-740
-741
-741
-741
-740
-739
-737
-737
-735
-735
-736
-736
-736
-736
-734
-733
-730
-729
-727
-726
-726
-726
-725
-725
-723
-721
-718
-715
-714
-712
-711
-711
-710
-708
-706
-703
-701
-699
-696
-695
-694
-694
-693
-693
-691
-688
-687
-685
-683
-682
-683
-684
-685
-685
-686
-684
-684
-684
-685
-687
-689
-691
-694
-697
-699
-699
-701
-702
-705
-707
-711
-715
-718
-721
-723
-723
-725
-727
-728
-731
-734
-737
-740
-742
-742
-743
-743
-744
-745
-747
-749
-751
-752
-753
-753
-752
-751
-751
-752
-753
-754
-755
-756
-756
-755
-754
-752
-751
-752
-753
-754
-755
-755
-756
-755
-754
-752
-752
-752
-752
-753
-754
-755
-755
-755
-754
-752
-751
-752
-754
-755
-755
-756
-755
-754
-754
-753
-753
-754
-755
-755
-756
-757
-757
-757
-756
-754
-753
-755
-756
-757
-758
-758
-758
-757
-756
-756
-756
-756
-758
-759
-760
-760
-760
-759
-758
-757
-758
-758
-759
-760
-761
-762
-761
-760
-759
-758
-759
-759
-760
-760
-761
-762
-762
-761
-760
-759
-759
-759
-761
-762
-763
-763
-762
-762
-761
-760
-761
-761
-761
-762
-763
-764
-763
-762
-760
-760
-760
-761
-762
-763
-763
-764
-763
-762
-761
-760
-760
-761
-762
-763
-764
-765
-764
-763
-762
-761
-761
-762
-763
-764
-765
-765
-765
-763
-762
-761
-762
-763
-764
-765
-765
-765
-765
-763
-762
-762
-762
-763
-764
-765
-766
-766
-764
-763
-762
-761
-762
-763
-764
-765
-766
-765
-765
-762
-759
-758
-756
-754
-753
-753
-753
-753
-753
-752
-751
-752
-753
-754
-754
-753
-750
-748
-747
-746
-744
-743
-744
-747
-750
-751
-752
-752
-753
-752
-751
-753
-755
-758
-760
-760
-760
-761
-761
-760
-759
-761
-762
-763
-765
-767
-767
-767
-766
-764
-764
-764
-764
-765
-767
-767
-768
-767
-767
-766
-765
-765
-765
-767
-767
-768
-768
-767
-766
-765
-764
-764
-764
-764
-763
-763
-761
-760
-758
-758
-759
-754
-736
-713
-682
-648
-613
-578
-548
-523
-524
-576
-634
-682
-720
-735
-738
-741
-749
-762
-781
-795
-808
-819
-826
-827
-827
-826
-824
-821
-817
-811
-801
-793
-786
-781
-774
-770
-765
-761
-759
-758
-758
-758
-758
-759
-758
-756
-754
-753
-751
-751
-752
-753
-753
-753
-752
-751
-749
-747
-747
-747
-747
-747
-748
-748
-748
-747
-744
-743
-742
-741
-742
-743
-744
-744
-742
-741
-739
-738
-737
-737
-737
-738
-739
-737
-736
-734
-732
-731
-729
-729
-728
-728
-728
-727
-726
-724
-721
-718
-717
-715
-715
-714
-713
-712
-709
-706
-702
-699
-697
-696
-695
-694
-693
-691
-690
-686
-684
-681
-679
-679
-679
-680
-678
-678
-677
-675
-674
-673
-673
-674
-676
-678
-680
-682
-683
-684
-685
-687
-690
-694
-698
-702
-706
-709
-712
-713
-714
-716
-719
-723
-726
-730
-733
-735
-736
-738
-739
-740
-741
-744
-746
-749
-750
-751
-752
-751
-750
-750
-751
-752
-754
-755
-757
-757
-755
-755
-753
-753
-753
-754
-755
-757
-757
-756
-756
-754
-753
-753
-752
-753
-754
-756
-755
-755
-754
-753
-752
-752
-751
-753
-754
-755
-756
-755
-754
-753
-753
-751
-752
-753
-754
-755
-756
-756
-755
-754
-753
-753
-753
-754
-756
-757
-757
-757
-756
-755
-754
-754
-755
-755
-757
-758
-759
-759
-758
-757
-755
-755
-757
-758
-759
-760
-759
-760
-758
-757
-757
-757
-757
-758
-759
-760
-761
-760
-759
-758
-758
-758
-758
-760
-761
-762
-762
-761
-760
-759
-758
-758
-759
-760
-761
-762
-762
-761
-760
-759
-758
-757
-759
-760
-761
-763
-763
-762
-761
-759
-758
-759
-760
-761
-761
-762
-762
-762
-761
-760
-759
-759
-759
-760
-762
-762
-762
-761
-760
-759
-759
-759
-760
-761
-762
-763
-762
-762
-761
-760
-758
-759
-760
-762
-763
-763
-763
-762
-761
-760
-760
-759
-760
-761
-763
-763
-762
-762
-761
-760
-759
-759
-760
-761
-762
-763
-762
-759
-756
-754
-751
-749
-749
-749
-750
-750
-750
-750
-749
-749
-749
-748
-747
-746
-745
-744
-744
-742
-741
-742
-744
-745
-746
-746
-748
-750
-750
-750
-751
-752
-753
-753
-754
-755
-756
-756
-756
-757
-758
-758
-759
-759
-760
-761
-763
-763
-763
-761
-761
-761
-761
-761
-761
-762
-763
-763
-763
-762
-761
-760
-759
-759
-760
-762
-763
-762
-762
-761
-760
-758
-757
-757
-757
-758
-758
-757
-757
-759
-750
-731
-703
-671
-638
-603
-569
-543
-521
-531
-586
-640
-683
-715
-726
-730
-736
-745
-760
-777
-789
-799
-810
-816
-819
-820
-821
-818
-816
-813
-805
-795
-786
-780
-775
-770
-766
-762
-759
-756
-754
-752
-751
-752
-753
-752
-752
-752
-750
-748
-745
-745
-745
-745
-746
-748
-747
-746
-746
-744
-742
-741
-740
-741
-742
-743
-743
-742
-740
-739
-736
-735
-736
-737
-738
-738
-738
-738
-736
-735
-733
-732
-732
-732
-732
-733
-732
-732
-730
-727
-726
-725
-723
-723
-723
-723
-722
-720
-717
-715
-713
-711
-710
-709
-708
-707
-705
-703
-700
-696
-694
-692
-691
-691
-690
-688
-687
-685
-682
-679
-677
-676
-676
-676
-677
-676
-676
-676
-675
-674
-674
-674
-676
-679
-681
-683
-685
-686
-688
-689
-691
-694
-697
-702
-707
-710
-713
-715
-717
-717
-719
-721
-725
-729
-732
-734
-736
-737
-738
-738
-739
-740
-743
-745
-747
-749
-749
-750
-749
-748
-749
-749
-750
-752
-754
-754
-755
-753
-752
-750
-750
-751
-751
-753
-754
-755
-754
-752
-751
-750
-749
-750
-750
-752
-753
-753
-753
-752
-750
-750
-749
-749
-751
-752
-753
-753
-752
-752
-752
-750
-750
-750
-751
-752
-753
-753
-753
-753
-752
-751
-750
-750
-752
-753
-754
-756
-756
-755
-754
-752
-752
-753
-755
-756
-757
-757
-756
-756
-754
-753
-753
-755
-756
-758
-758
-759
-758
-757
-755
-755
-756
-757
-758
-758
-759
-760
-760
-758
-757
-757
-757
-757
-758
-760
-761
-762
-761
-759
-758
-757
-758
-758
-759
-760
-761
-761
-761
-759
-758
-757
-758
-758
-759
-761
-762
-762
-762
-760
-759
-758
-758
-759
-761
-763
-763
-762
-760
-759
-759
-758
-758
-759
-762
-763
-763
-763
-762
-761
-759
-759
-760
-760
-762
-763
-763
-762
-761
-760
-759
-760
-760
-762
-763
-764
-764
-763
-763
-762
-760
-760
-761
-761
-762
-764
-764
-764
-763
-761
-759
-758
-757
-756
-754
-754
-753
-752
-752
-751
-750
-749
-751
-753
-755
-754
-751
-748
-745
-744
-743
-742
-743
-745
-748
-751
-752
-751
-750
-749
-748
-750
-753
-756
-757
-759
-759
-758
-757
-758
-758
-758
-761
-762
-764
-765
-765
-765
-764
-764
-763
-763
-763
-764
-765
-767
-767
-767
-766
-765
-763
-763
-764
-765
-766
-767
-767
-766
-765
-763
-763
-763
-763
-764
-765
-764
-762
-760
-759
-757
-757
-758
-750
-732
-706
-677
-645
-612
-581
-558
-540
-559
-612
-658
-697
-725
-733
-734
-738
-745
-758
-775
-788
-801
-812
-818
-822
-822
-822
-820
-817
-816
-812
-804
-796
-788
-782
-776
-770
-765
-762
-761
-762
-762
-761
-760
-760
-758
-756
-755
-755
-754
-755
-756
-757
-756
-755
-753
-752
-751
-750
-750
-750
-751
-752
-752
-751
-750
-748
-746
-745
-745
-746
-747
-747
-747
-746
-745
-743
-741
-741
-741
-742
-742
-742
-743
-742
-740
-738
-735
-734
-734
-735
-734
-734
-733
-732
-730
-727
-725
-724
-724
-723
-722
-721
-720
-717
-715
-712
-709
-707
-706
-705
-704
-703
-702
-700
-697
-695
-692
-691
-691
-691
-691
-690
-690
-688
-687
-685
-684
-684
-685
-688
-689
-691
-691
-692
-693
-694
-696
-698
-701
-705
-708
-711
-715
-717
-718
-720
-721
-723
-727
-731
-734
-737
-739
-740
-741
-742
-744
-745
-747
-750
-752
-754
-755
-755
-755
-755
-755
-756
-757
-759
-760
-761
-761
-760
-759
-757
-757
-758
-758
-760
-761
-762
-761
-760
-759
-758
-758
-757
-758
-759
-760
-761
-761
-759
-758
-757
-756
-757
-758
-759
-760
-760
-760
-760
-759
-757
-757
-758
-759
-760
-762
-762
-761
-761
-760
-758
-758
-760
-761
-762
-763
-764
-763
-762
-761
-760
-760
-761
-762
-763
-765
-766
-765
-764
-763
-763
-761
-762
-764
-765
-766
-766
-766
-765
-763
-763
-763
-764
-765
-766
-767
-768
-768
-766
-765
-764
-764
-765
-766
-767
-768
-769
-767
-766
-765
-764
-765
-765
-766
-768
-768
-768
-767
-767
-766
-765
-766
-767
-767
-768
-769
-769
-768
-767
-766
-765
-765
-766
-768
-769
-769
-769
-768
-768
-766
-765
-765
-766
-768
-769
-770
-769
-769
-768
-767
-767
-767
-768
-769
-770
-770
-770
-769
-767
-766
-766
-767
-768
-769
-771
-771
-769
-768
-768
-766
-766
-767
-768
-769
-770
-770
-771
-769
-768
-767
-767
-767
-767
-766
-766
-764
-761
-758
-756
-754
-753
-754
-756
-758
-760
-760
-760
-758
-754
-750
-748
-749
-749
-750
-751
-753
-755
-755
-754
-753
-753
-755
-756
-758
-760
-763
-764
-764
-762
-760
-761
-762
-764
-767
-769
-771
-770
-769
-768
-768
-768
-768
-770
-771
-772
-772
-771
-770
-769
-768
-768
-769
-770
-771
-772
-772
-772
-770
-768
-768
-768
-768
-769
-771
-771
-771
-769
-767
-764
-762
-762
-762
-764
-768
-762
-742
-715
-679
-643
-606
-571
-543
-521
-529
-585
-643
-690
-724
-735
-739
-744
-755
-772
-793
-808
-821
-830
-833
-832
-831
-829
-829
-828
-825
-817
-807
-797
-790
-783
-777
-773
-770
-767
-765
-765
-764
-762
-760
-758
-757
-757
-758
-758
-759
-758
-758
-757
-754
-753
-752
-752
-753
-754
-754
-753
-753
-752
-750
-749
-748
-748
-749
-750
-750
-749
-748
-747
-745
-744
-743
-743
-744
-744
-745
-745
-743
-741
-740
-738
-737
-736
-737
-737
-737
-736
-734
-733
-730
-727
-726
-725
-725
-725
-724
-723
-721
-717
-714
-710
-710
-708
-707
-706
-705
-703
-700
-695
-693
-691
-689
-687
-687
-688
-687
-685
-683
-681
-678
-677
-677
-677
-677
-678
-678
-679
-680
-680
-680
-681
-683
-687
-691
-694
-697
-700
-702
-704
-706
-709
-712
-716
-721
-724
-728
-730
-732
-733
-734
-736
-739
-742
-745
-748
-750
-752
-752
-752
-752
-753
-754
-756
-758
-759
-760
-760
-760
-759
-759
-759
-759
-760
-762
-763
-763
-763
-762
-760
-759
-759
-759
-760
-761
-761
-761
-761
-760
-760
-758
-758
-758
-759
-761
-762
-762
-761
-760
-759
-758
-757
-757
-759
-761
-762
-762
-761
-761
-760
-759
-758
-759
-760
-761
-763
-763
-762
-761
-760
-760
-760
-761
-762
-763
-764
-764
-764
-763
-762
-762
-762
-762
-764
-765
-766
-766
-765
-765
-764
-764
-763
-763
-765
-767
-768
-767
-767
-766
-765
-764
-764
-765
-766
-767
-768
-768
-767
-767
-765
-765
-765
-766
-767
-768
-769
-769
-768
-767
-767
-766
-766
-766
-767
-769
-770
-769
-769
-768
-767
-767
-767
-767
-769
-770
-769
-770
-769
-768
-767
-766
-766
-767
-768
-769
-771
-771
-770
-769
-767
-767
-768
-768
-769
-770
-771
-771
-769
-768
-767
-767
-768
-769
-769
-771
-772
-772
-770
-769
-768
-768
-768
-769
-771
-772
-772
-772
-771
-770
-768
-768
-768
-770
-771
-772
-773
-772
-771
-770
-769
-768
-769
-770
-771
-771
-770
-769
-767
-764
-760
-758
-757
-758
-759
-761
-761
-761
-761
-759
-758
-757
-756
-756
-756
-756
-755
-753
-752
-752
-754
-755
-756
-757
-759
-761
-761
-760
-762
-764
-764
-765
-764
-765
-767
-768
-768
-769
-770
-770
-770
-770
-771
-773
-773
-773
-774
-773
-772
-772
-771
-771
-772
-773
-774
-775
-776
-775
-774
-772
-771
-771
-773
-774
-775
-775
-775
-774
-773
-771
-770
-770
-768
-768
-768
-768
-769
-770
-764
-746
-722
-691
-658
-624
-591
-564
-540
-537
-585
-641
-684
-720
-737
-740
-745
-754
-767
-785
-799
-810
-821
-828
-831
-833
-835
-834
-832
-828
-822
-811
-802
-794
-790
-785
-780
-778
-775
-772
-770
-768
-766
-766
-767
-767
-767
-768
-766
-764
-763
-762
-761
-760
-762
-762
-763
-761
-761
-760
-757
-756
-755
-755
-757
-758
-759
-759
-757
-755
-754
-752
-751
-752
-753
-754
-755
-754
-753
-751
-749
-747
-747
-747
-748
-748
-747
-747
-746
-744
-742
-740
-739
-739
-740
-740
-739
-738
-736
-732
-729
-727
-726
-726
-725
-724
-722
-721
-718
-715
-712
-709
-706
-706
-706
-706
-705
-702
-700
-697
-695
-694
-692
-692
-693
-694
-693
-693
-692
-691
-690
-690
-691
-693
-696
-698
-701
-703
-705
-706
-708
-710
-713
-716
-720
-724
-728
-731
-732
-732
-734
-736
-739
-743
-746
-750
-752
-754
-756
-756
-755
-756
-759
-761
-764
-765
-766
-767
-767
-766
-765
-765
-766
-768
-769
-770
-771
-772
-771
-770
-769
-769
-768
-770
-770
-771
-772
-772
-770
-768
-768
-767
-766
-768
-770
-770
-770
-770
-769
-768
-768
-767
-767
-769
-770
-771
-772
-770
-769
-768
-766
-767
-767
-769
-770
-772
-773
-772
-770
-768
-767
-767
-768
-770
-772
-773
-774
-773
-772
-771
-770
-770
-771
-773
-774
-775
-775
-774
-773
-772
-772
-772
-773
-775
-776
-776
-777
-777
-775
-774
-773
-772
-773
-775
-776
-777
-778
-777
-776
-775
-774
-775
-776
-777
-778
-778
-779
-778
-777
-776
-775
-775
-776
-777
-778
-778
-778
-778
-777
-776
-776
-776
-777
-778
-779
-780
-780
-779
-778
-775
-775
-776
-777
-779
-780
-781
-781
-779
-778
-777
-776
-777
-778
-779
-779
-780
-780
-779
-778
-777
-776
-777
-779
-779
-781
-781
-781
-780
-778
-777
-777
-778
-779
-779
-780
-781
-781
-780
-779
-777
-778
-779
-779
-781
-781
-781
-780
-780
-779
-778
-778
-779
-780
-781
-782
-781
-781
-780
-778
-777
-775
-775
-775
-774
-772
-771
-770
-768
-766
-767
-767
-767
-770
-772
-772
-771
-768
-764
-761
-761
-760
-761
-763
-764
-766
-768
-768
-766
-765
-766
-766
-768
-771
-773
-775
-776
-775
-774
-773
-773
-774
-775
-778
-779
-780
-781
-781
-780
-779
-779
-779
-780
-781
-782
-783
-783
-782
-781
-780
-779
-779
-780
-781
-782
-783
-783
-782
-781
-780
-779
-779
-780
-781
-782
-782
-781
-778
-775
-773
-771
-771
-775
-776
-765
-744
-715
-684
-651
-619
-591
-570
-556
-588
-639
-681
-717
-741
-744
-746
-752
-761
-777
-794
-807
-819
-829
-831
-834
-836
-835
-833
-832
-831
-827
-818
-809
-801
-794
-788
-783
-780
-779
-778
-777
-777
-776
-774
-773
-773
-772
-771
-771
-772
-772
-771
-770
-768
-767
-766
-765
-766
-766
-767
-766
-766
-767
-765
-762
-762
-761
-761
-762
-763
-763
-763
-763
-761
-759
-757
-757
-758
-757
-758
-758
-758
-757
-755
-754
-752
-751
-751
-751
-752
-752
-751
-750
-747
-744
-743
-742
-741
-741
-740
-739
-738
-736
-733
-730
-727
-726
-725
-724
-723
-723
-721
-718
-715
-713
-710
-709
-708
-707
-707
-707
-706
-705
-703
-701
-700
-700
-701
-702
-703
-704
-704
-705
-705
-705
-707
-709
-712
-716
-718
