223
222
219
214
207
201
197
193
189
187
188
189
187
185
182
176
172
170
169
170
171
172
172
172
171
168
166
166
169
173
176
181
182
182
178
176
171
162
161
163
161
160
159
160
160
158
160
161
163
164
166
168
169
171
170
168
165
164
164
167
170
173
175
173
170
168
165
161
161
166
171
175
176
175
173
172
169
166
168
168
173
174
173
171
169
165
162
159
157
160
165
167
165
163
162
161
162
162
161
165
168
172
173
172
167
163
162
160
160
162
164
167
168
166
164
163
162
162
164
167
168
172
175
173
171
170
166
161
156
156
158
162
162
160
159
159
159
159
162
164
167
169
168
168
168
164
160
159
159
162
165
167
169
167
164
161
160
161
165
169
173
176
173
167
162
158
157
159
161
167
173
175
173
168
164
160
158
155
156
160
164
165
165
165
163
162
163
163
165
168
170
169
170
170
169
166
166
170
173
177
181
185
186
183
178
173
172
173
178
185
192
196
196
195
193
190
186
184
184
188
192
192
189
184
179
173
170
169
170
174
176
174
172
171
167
163
162
163
165
168
170
170
169
166
163
161
161
163
165
167
169
170
169
167
164
162
163
165
167
170
170
170
169
166
164
163
163
164
169
174
177
180
182
178
174
170
169
177
196
225
263
303
337
370
401
426
426
386
333
280
235
213
207
199
187
169
146
128
115
107
104
102
103
106
107
108
110
119
132
144
153
160
165
167
170
173
176
179
183
186
189
190
189
188
187
185
184
185
188
190
189
188
186
184
183
183
184
187
192
194
195
194
195
192
188
188
191
196
199
200
201
198
195
193
192
191
192
194
198
204
206
206
202
198
197
197
200
204
209
214
215
214
212
208
207
207
208
211
214
218
222
224
222
220
219
221
222
226
232
236
237
237
237
235
235
237
242
248
251
255
255
257
258
258
260
265
268
271
272
271
271
271
273
271
272
273
273
276
278
280
281
279
276
271
266
265
264
262
261
259
256
252
246
239
231
227
227
227
225
220
217
213
209
206
202
201
202
203
203
198
196
192
186
182
178
177
175
177
181
182
179
177
176
172
170
172
173
176
179
179
179
177
175
173
171
171
173
176
179
181
182
180
176
177
175
173
176
179
182
182
182
180
175
173
175
178
181
184
186
186
186
183
179
178
179
178
178
181
181
178
172
167
166
167
168
169
169
174
176
176
177
176
171
169
171
172
173
177
178
179
178
174
168
165
165
167
171
174
177
176
175
173
172
170
168
168
170
172
174
174
172
170
167
163
161
164
169
177
182
181
179
175
167
159
158
159
161
166
168
166
165
166
164
163
164
163
165
168
171
172
170
165
160
157
157
160
162
168
171
171
170
166
163
161
159
160
164
166
165
166
164
161
157
157
161
163
165
168
171
172
172
172
171
171
174
179
183
185
185
183
178
174
171
172
173
174
179
183
185
186
186
184
180
180
182
184
185
184
183
181
177
172
169
168
167
170
171
170
171
172
170
166
164
163
164
165
168
171
172
170
166
162
159
159
159
162
165
166
167
165
162
160
158
156
158
164
171
177
178
175
168
163
159
156
158
161
165
166
162
160
166
168
165
167
169
170
177
192
219
249
280
314
351
381
403
411
377
329
275
231
209
203
198
189
178
161
146
133
122
115
109
104
101
103
111
121
129
140
148
152
153
153
155
158
165
174
182
185
184
182
179
175
171
174
180
184
187
187
189
189
189
188
186
189
194
196
197
197
196
193
189
188
189
193
197
202
205
204
199
195
192
190
191
194
197
202
207
211
211
207
201
196
196
201
207
213
215
216
213
208
208
209
211
214
219
224
226
226
225
221
219
220
221
223
229
233
236
236
236
236
236
237
240
245
249
253
257
260
260
259
257
256
257
262
268
272
275
276
274
272
271
273
274
277
282
286
289
290
288
283
279
277
277
275
273
274
273
268
261
255
249
246
241
237
239
240
239
236
229
222
220
218
214
212
210
207
202
199
195
193
192
190
189
190
191
195
195
192
190
186
184
183
182
183
185
187
189
188
187
185
182
183
185
188
191
192
195
194
192
187
183
183
183
184
188
192
194
193
192
189
184
185
189
192
194
193
190
189
191
192
194
196
199
204
206
204
199
192
183
177
178
180
183
187
190
191
190
187
186
183
184
183
184
187
191
193
192
191
189
186
182
182
183
185
188
191
191
188
184
179
180
182
185
187
192
193
192
193
191
186
185
187
191
196
200
200
195
190
184
180
175
175
178
182
186
188
186
184
183
181
179
180
182
185
188
190
190
187
182
180
180
181
181
182
185
188
189
187
185
184
183
184
185
186
188
192
193
194
198
201
205
205
203
203
202
201
200
195
191
188
186
188
192
201
206
206
205
204
201
198
195
196
198
203
205
205
204
200
193
189
185
183
186
189
191
190
187
182
180
177
175
177
179
183
185
186
184
182
178
175
175
179
183
186
188
187
185
183
180
179
178
181
185
186
187
187
187
185
180
176
178
178
176
176
178
178
178
176
172
169
179
201
232
267
303
336
372
404
425
427
388
338
286
245
227
224
217
208
190
164
143
130
121
118
118
120
122
122
124
126
130
141
153
166
173
179
182
181
182
181
182
187
191
195
196
197
194
192
190
188
186
188
193
198
199
197
194
193
192
190
191
196
202
207
210
209
206
203
198
196
197
200
203
207
207
206
204
202
202
204
206
208
211
214
217
215
211
209
208
208
211
217
219
222
223
220
218
216
215
215
219
223
227
230
231
231
230
230
232
233
237
242
247
249
253
254
251
249
248
248
252
257
261
262
265
267
266
265
268
271
273
277
283
285
286
286
283
281
279
280
282
285
289
292
291
286
281
277
272
270
269
270
268
264
258
250
241
236
232
227
225
225
225
221
217
212
208
203
200
197
197
199
200
198
196
194
189
183
183
184
185
188
190
192
192
189
185
183
183
183
185
189
194
199
201
197
190
184
177
171
173
179
184
186
185
181
179
176
176
179
183
186
189
191
189
188
185
184
184
184
185
187
188
190
192
187
185
184
183
184
185
188
190
193
190
188
184
181
181
186
194
199
201
201
195
189
183
179
174
171
174
179
183
185
183
182
179
176
175
177
178
183
185
184
182
179
177
178
178
179
180
183
185
186
183
181
179
176
174
176
178
180
182
181
181
181
179
178
177
176
177
179
181
182
182
181
179
178
177
177
178
179
180
181
180
178
177
177
179
185
192
198
200
197
193
190
190
190
192
193
196
197
199
200
202
205
206
207
208
206
202
196
192
192
193
190
187
187
187
189
191
191
191
189
185
180
179
177
174
175
177
182
183
182
179
175
174
173
173
176
179
181
183
182
180
177
175
174
174
177
180
183
182
181
179
176
175
173
174
177
180
183
183
181
181
182
186
188
191
193
195
200
214
232
253
277
307
343
378
407
422
402
355
299
249
218
209
207
204
198
182
162
146
132
123
115
112
112
116
123
131
139
145
152
158
164
168
174
182
187
191
196
199
199
199
199
196
196
197
199
199
203
204
201
200
198
197
197
200
205
207
208
207
205
203
202
203
206
208
211
214
217
217
215
212
210
213
217
222
226
229
227
222
215
210
209
213
217
222
226
228
226
224
223
222
220
221
223
226
231
236
239
238
237
236
235
234
236
240
247
250
251
251
252
253
253
253
256
260
267
275
278
280
278
273
269
269
275
280
285
288
291
292
293
292
291
291
289
289
292
295
295
293
291
289
286
285
285
285
285
284
282
276
268
263
259
255
253
252
252
251
248
242
235
230
226
224
220
219
219
218
218
216
213
208
206
207
210
213
215
215
213
208
203
196
190
191
193
197
201
204
204
202
200
195
190
190
192
196
200
202
203
201
199
197
195
196
198
199
200
202
202
203
201
200
198
198
202
206
207
211
210
203
201
202
202
203
206
210
212
210
208
204
199
195
198
202
205
208
207
204
202
198
195
191
192
192
192
195
201
203
203
201
197
194
193
192
195
200
203
203
201
198
197
197
196
196
198
202
205
206
203
197
195
194
194
195
197
201
201
201
199
196
194
193
194
196
197
199
200
198
199
197
193
190
190
192
195
199
200
199
200
200
198
197
198
201
202
203
202
201
198
196
194
191
191
190
194
197
198
197
196
194
191
189
190
193
197
200
202
202
199
198
195
192
191
192
196
201
203
203
204
205
209
210
208
211
214
216
218
215
212
209
206
204
206
212
217
221
225
225
223
219
215
213
214
216
219
221
220
215
208
202
197
195
197
201
205
207
206
202
197
192
191
189
188
193
198
202
205
204
201
196
195
194
193
193
193
195
194
194
195
191
190
192
196
198
199
200
197
194
192
188
186
187
190
196
201
204
204
202
200
196
197
210
238
274
312
351
390
425
449
458
426
375
319
271
247
241
233
221
202
174
151
139
132
130
131
136
139
139
138
138
142
149
160
174
186
194
200
204
203
203
202
204
208
213
215
217
217
215
214
211
210
211
214
217
221
223
224
221
215
213
211
213
218
222
225
226
227
226
223
219
218
219
221
223
227
228
227
226
225
222
222
224
229
233
235
235
234
233
232
232
232
232
236
240
242
244
243
243
241
238
237
242
247
251
253
255
255
254
253
254
254
254
258
262
267
269
269
270
269
270
272
276
281
286
290
292
290
291
291
291
290
293
297
303
308
310
311
307
304
304
306
308
310
310
310
309
305
302
297
295
293
291
291
290
287
284
277
271
264
257
252
249
249
249
249
245
241
234
229
226
223
223
223
224
224
223
220
216
212
210
209
210
213
217
218
215
214
212
208
205
203
206
211
215
221
222
219
214
208
205
203
204
208
211
214
214
212
208
206
205
207
210
215
218
218
215
212
208
207
206
206
209
213
216
217
216
213
210
209
208
206
206
208
211
211
212
210
208
208
207
205
206
209
211
210
209
207
206
206
207
207
209
212
212
212
209
207
205
204
202
203
207
210
211
210
208
206
202
200
201
201
205
209
211
210
208
205
201
198
198
200
203
206
206
204
204
203
201
200
200
202
204
206
208
207
206
204
201
201
202
203
204
207
210
209
206
203
199
199
200
201
201
204
207
206
206
205
203
202
204
208
209
207
207
207
204
199
196
196
195
196
200
205
205
203
200
198
197
197
198
200
203
206
209
207
204
202
200
200
203
207
214
218
219
218
216
213
211
211
214
216
216
218
221
218
216
219
218
218
223
230
233
233
228
222
217
213
212
214
216
215
216
216
214
212
210
206
203
202
201
201
203
204
203
202
198
196
197
197
197
199
203
205
205
201
199
197
195
193
195
200
204
207
209
208
205
202
198
196
198
200
201
200
199
197
193
193
196
197
197
200
202
203
212
231
256
285
319
356
396
428
451
447
405
353
298
255
238
231
228
223
211
191
173
159
146
137
133
133
136
142
151
156
157
160
164
173
183
193
203
211
217
220
219
214
206
200
200
202
206
210
213
214
214
212
210
210
211
213
215
218
221
222
221
219
219
217
217
218
220
224
227
228
226
223
221
219
219
220
224
229
231
233
232
230
228
226
226
230
234
238
240
239
239
235
232
233
234
235
237
241
244
245
245
244
243
242
243
246
251
253
255
257
257
256
256
257
259
262
268
272
276
277
277
279
280
281
284
290
296
300
300
299
298
293
289
289
292
295
303
309
310
306
301
295
292
293
294
296
299
299
299
296
291
284
280
274
271
269
268
267
266
264
257
249
243
238
238
239
239
237
234
231
227
222
219
218
218
218
222
224
223
221
218
212
207
208
212
218
224
229
228
223
214
206
201
200
202
205
211
214
214
214
214
212
210
209
208
211
215
217
218
216
214
211
208
210
213
216
220
221
222
221
217
214
213
214
215
217
222
226
226
222
218
215
214
213
215
219
222
224
224
221
217
212
209
207
208
212
215
216
216
216
213
211
210
210
210
212
215
219
220
217
213
210
209
210
214
219
220
218
217
213
210
208
209
210
212
214
217
219
218
214
211
209
207
207
210
211
213
217
218
217
214
210
207
207
208
212
216
217
216
213
212
211
210
211
214
217
219
219
216
213
210
208
209
211
212
214
216
215
215
215
214
213
211
213
217
220
224
224
223
222
216
210
202
201
203
207
210
211
211
210
207
206
208
210
212
216
218
218
215
212
210
209
210
213
218
226
231
232
230
227
223
222
222
224
228
229
228
227
225
225
228
230
232
236
238
239
237
236
235
230
225
222
222
226
226
227
227
225
221
219
218
217
215
213
214
213
214
213
209
206
203
203
203
204
209
211
212
212
209
204
204
203
203
206
208
211
213
214
211
207
203
203
204
205
209
212
213
211
208
207
208
208
212
212
215
218
218
223
238
262
292
328
366
409
445
472
473
429
374
315
268
246
242
238
231
217
194
173
158
146
136
132
135
141
149
154
160
167
173
178
185
194
200
207
215
220
222
225
226
225
223
221
221
223
225
228
229
228
227
225
224
223
226
231
234
234
232
231
228
225
226
225
227
230
233
235
233
231
229
229
230
231
234
239
246
248
246
243
240
238
237
237
239
243
248
252
252
250
246
245
244
244
247
251
255
257
256
255
252
251
251
254
256
259
263
267
268
266
266
267
267
268
270
277
283
288
290
291
289
288
291
293
295
300
303
305
307
308
306
306
306
309
312
317
321
322
321
319
318
316
315
314
316
318
318
315
309
304
300
295
294
294
293
290
285
279
271
263
257
251
246
245
246
248
246
243
238
236
233
230
225
224
224
227
228
228
225
222
218
215
211
213
216
218
220
221
219
217
212
212
213
215
218
221
222
219
217
217
213
212
213
217
220
222
224
224
222
219
217
217
218
217
221
224
225
223
220
217
216
213
212
214
217
220
221
222
220
217
214
213
213
215
217
220
222
222
219
216
216
219
223
227
230
232
230
224
215
208
207
205
207
210
216
219
219
218
215
212
209
206
207
210
214
216
218
216
213
211
208
208
208
209
213
216
216
215
213
209
207
207
208
211
214
217
218
215
214
211
208
207
211
216
224
228
230
227
223
219
215
212
211
213
215
214
213
208
206
206
203
202
204
207
209
210
212
212
210
208
207
208
209
212
215
216
216
216
213
210
208
208
210
213
216
217
218
216
212
209
209
209
213
216
220
223
223
221
220
220
225
230
236
238
238
236
231
228
223
220
218
220
223
226
232
237
240
241
240
238
238
236
234
234
234
236
236
235
232
229
226
224
224
225
228
227
225
224
220
216
214
213
214
218
220
221
220
218
215
212
211
212
216
220
223
224
224
221
216
213
209
210
212
213
217
222
222
220
213
208
208
210
216
220
223
223
222
219
214
214
212
213
224
248
279
312
347
380
416
449
472
470
431
381
327
282
260
254
247
237
221
199
183
171
163
157
151
149
151
153
157
159
169
182
193
201
207
210
212
216
222
227
231
233
233
235
235
232
231
233
235
234
236
240
242
243
243
239
236
233
231
234
237
240
241
240
239
237
235
235
236
238
242
247
249
246
244
243
241
241
242
245
249
252
254
254
252
248
246
247
250
254
257
260
263
263
263
262
260
260
262
262
263
268
271
270
266
264
266
268
269
272
278
281
284
286
284
282
283
285
289
293
297
301
305
306
306
305
304
306
308
312
317
322
323
324
325
323
322
323
327
330
333
334
333
331
328
325
321
316
314
315
315
313
311
306
301
294
288
284
281
279
277
276
274
270
265
259
254
251
249
249
250
250
248
243
239
235
234
233
235
236
238
239
239
235
231
228
228
231
237
240
241
240
235
229
226
223
222
223
226
230
233
234
233
230
227
226
226
227
229
232
234
236
236
232
229
228
227
227
229
230
233
235
235
233
231
227
227
230
233
234
236
238
237
234
230
228
226
227
230
234
236
236
234
231
227
226
226
227
229
231
234
235
233
229
226
223
222
222
225
228
230
230
227
225
224
223
222
223
226
229
231
230
230
229
225
221
219
221
224
229
232
233
230
227
224
222
220
222
225
228
229
227
226
225
224
223
224
226
229
232
233
232
228
222
218
216
218
220
223
227
230
230
227
221
218
218
220
220
223
229
231
230
228
225
222
221
221
222
223
225
227
227
225
222
220
219
219
222
226
229
231
231
229
225
222
220
222
225
228
230
231
228
226
224
221
220
221
226
230
233
238
242
242
241
239
242
245
244
245
245
241
236
232
230
231
235
241
246
251
253
253
250
245
240
238
239
241
242
244
245
243
239
234
230
227
226
227
229
231
231
232
230
226
223
221
224
227
229
230
231
231
227
225
224
221
220
221
222
225
228
227
225
222
218
219
219
221
222
223
226
228
226
222
221
220
219
222
228
231
232
231
227
226
234
257
289
329
368
408
449
477
492
472
421
365
311
277
268
264
257
242
218
192
172
160
154
154
159
164
166
169
172
173
177
185
194
204
215
223
230
234
234
233
231
230
232
235
240
245
249
252
249
243
238
237
241
244
246
246
246
245
243
242
240
240
243
246
251
254
255
254
252
249
246
244
245
249
253
256
257
257
255
252
252
252
252
256
260
262
264
261
258
256
256
257
259
262
265
267
268
270
270
269
269
270
272
276
279
281
280
281
279
279
278
278
282
287
292
295
298
299
298
297
296
297
303
309
313
315
320
319
317
316
315
316
319
325
330
334
336
335
334
331
328
327
329
332
335
337
335
331
326
321
317
312
309
309
309
309
304
299
293
286
282
280
278
278
277
272
267
263
259
254
251
250
250
251
252
250
245
241
238
236
235
233
234
238
240
239
239
236
232
228
227
230
233
238
240
240
238
237
235
233
233
233
234
237
241
241
238
235
232
230
230
231
234
238
241
243
243
240
235
232
232
233
235
237
240
240
239
236
234
231
230
231
231
233
237
238
235
233
231
228
227
228
231
234
237
237
235
232
228
227
228
230
233
237
238
239
237
232
228
225
225
226
229
230
234
235
234
231
228
223
222
224
226
230
231
231
227
224
222
221
221
223
225
230
232
231
228
225
224
222
221
223
226
229
232
232
229
226
222
219
219
220
223
226
229
228
227
225
221
219
218
222
225
230
232
230
225
221
220
219
220
223
227
231
233
233
232
225
221
219
217
219
222
226
228
226
221
218
217
218
219
221
222
225
226
224
221
218
216
215
218
221
224
227
228
227
222
217
215
217
221
228
234
240
243
238
232
229
227
229
232
235
237
238
239
238
237
238
239
240
242
247
250
249
248
243
238
236
232
231
234
237
236
235
234
231
227
224
223
221
221
224
227
225
224
224
219
215
215
215
217
219
220
220
220
218
217
215
212
213
216
220
225
227
225
222
219
216
214
213
215
217
221
224
225
224
220
217
219
220
223
226
229
228
233
248
271
299
333
371
407
442
465
470
436
387
330
284
262
260
260
257
246
225
203
183
168
158
155
154
159
167
173
177
180
182
185
192
200
208
217
225
230
235
237
237
235
232
231
232
236
241
245
247
247
245
243
241
240
242
243
244
247
247
248
248
246
243
241
243
248
253
255
256
254
252
250
248
249
250
253
256
259
260
258
259
259
257
257
260
262
266
265
261
259
258
254
252
255
259
264
268
271
274
274
270
268
268
270
273
279
282
284
285
285
284
283
284
286
289
294
299
302
303
303
302
303
303
304
308
313
319
324
325
323
322
322
323
325
326
327
328
331
331
330
326
322
320
319
323
328
332
333
330
325
318
312
307
305
305
307
306
304
300
294
286
279
272
269
267
268
271
271
268
263
256
252
249
246
245
245
248
249
246
244
241
236
232
233
236
240
241
242
242
240
237
235
233
233
234
236
237
238
237
237
234
235
236
239
241
242
243
243
242
239
234
231
233
234
237
240
242
242
241
239
236
233
233
236
239
241
242
241
240
236
232
231
231
232
237
242
245
246
244
242
238
233
230
233
238
239
240
238
235
233
231
230
230
232
234
237
238
238
235
233
230
228
229
231
233
235
238
238
235
233
232
230
230
231
232
233
234
234
232
230
229
228
228
229
231
234
235
234
230
227
222
221
224
228
232
235
236
235
232
227
225
223
222
226
230
232
233
232
231
228
226
225
225
230
234
235
235
234
230
227
225
226
229
232
236
237
235
232
228
226
226
225
224
227
230
232
232
230
228
226
223
223
226
227
230
232
232
230
227
224
222
223
225
228
231
235
234
231
225
222
222
222
224
227
234
239
242
245
247
246
244
243
244
247
250
251
246
243
240
237
236
239
244
250
254
257
255
251
246
243
242
242
244
246
248
247
244
240
236
231
228
229
231
235
238
237
232
229
226
224
223
224
227
231
233
233
231
230
227
223
219
220
224
229
231
231
230
229
228
226
226
225
226
228
228
227
225
224
223
222
223
224
227
232
235
235
233
227
228
242
267
300
339
377
417
456
484
496
461
407
350
301
275
269
262
252
237
213
187
168
158
153
156
163
169
173
175
174
176
182
190
200
210
220
226
229
230
232
232
230
233
234
236
240
245
246
247
245
243
241
241
242
243
244
249
251
248
246
244
242
244
246
248
251
252
252
252
249
246
245
245
248
252
256
258
256
255
254
252
251
253
256
260
263
262
261
260
258
255
255
258
262
266
268
268
268
269
267
266
268
269
273
277
280
285
284
282
282
280
279
283
286
289
290
293
293
291
290
291
294
299
304
308
313
316
315
313
312
313
315
316
321
329
334
336
334
332
331
330
331
332
334
339
338
334
332
330
323
320
317
314
311
312
311
308
301
295
289
284
279
277
276
276
274
271
264
258
252
247
245
247
249
249
252
249
245
240
236
235
234
233
235
239
240
240
237
235
232
229
226
226
230
234
239
241
239
235
232
229
227
229
234
238
239
238
234
230
229
228
229
234
238
241
241
238
233
229
226
226
226
230
233
235
235
237
235
232
231
230
229
231
236
239
238
234
233
232
231
230
232
234
238
237
235
233
230
226
224
222
224
226
230
234
234
233
230
228
225
224
223
225
228
232
232
231
230
228
226
224
222
222
224
226
228
228
227
226
221
219
220
221
224
229
232
233
231
225
220
219
219
223
226
227
226
224
223
220
219
219
219
220
222
224
224
223
221
217
216
218
220
223
225
227
228
226
225
223
220
218
218
222
226
229
228
226
222
219
217
217
221
225
227
224
222
219
216
214
212
215
218
222
224
225
225
223
218
214
213
214
218
225
230
232
234
234
233
230
228
229
231
234
236
239
238
233
228
224
224
230
237
245
251
254
252
245
238
231
229
232
235
236
240
241
238
233
227
222
220
221
223
225
226
226
223
219
214
212
210
210
213
219
222
224
222
220
218
218
218
215
218
221
221
221
221
220
218
215
213
212
212
213
214
216
217
215
212
211
213
217
221
225
226
226
224
218
221
235
263
298
335
372
409
438
458
462
428
379
325
283
264
263
261
250
234
211
188
172
164
163
166
167
170
170
169
169
168
170
176
186
197
207
214
220
223
225
225
227
229
231
232
236
239
238
234
230
226
226
229
232
236
240
242
245
242
239
237
234
233
237
243
247
248
248
247
245
244
243
244
247
252
251
250
249
249
247
244
243
244
249
253
256
259
259
255
251
250
251
253
256
262
268
268
267
264
261
259
257
260
266
273
279
280
279
276
274
274
274
278
285
293
297
298
297
296
294
290
290
294
299
305
309
311
312
312
311
311
313
317
319
323
328
330
330
328
326
324
322
323
324
327
328
328
326
325
322
316
312
310
307
304
300
297
292
289
285
280
277
276
277
275
273
269
262
256
252
247
245
247
249
250
250
248
246
241
236
233
232
235
238
241
241
241
239
235
234
233
229
230
233
238
240
240
240
239
238
236
236
240
240
238
238
238
239
240
238
236
233
228
227
230
234
234
232
230
227
227
228
231
234
237
237
237
234
231
230
228
227
227
232
237
236
235
233
233
232
229
228
230
232
234
235
235
233
228
225
224
225
228
230
232
230
229
227
225
226
225
225
227
229
230
230
231
230
227
227
225
223
225
226
226
224
222
218
214
214
217
222
226
230
232
233
229
223
218
218
219
222
222
224
227
228
227
223
220
218
218
221
223
226
227
226
225
222
218
217
218
220
223
226
229
228
226
222
220
221
222
224
226
226
227
227
226
221
217
214
214
215
218
219
220
222
222
219
219
219
220
220
221
224
226
225
222
218
216
216
219
221
222
223
224
223
222
218
215
214
216
220
225
230
233
234
235
233
231
229
226
227
233
236
239
239
234
230
230
229
233
239
242
247
250
248
244
239
235
233
233
237
239
238
237
235
230
225
221
220
223
225
228
230
227
220
215
213
211
210
213
216
220
222
224
225
221
216
212
209
209
211
213
216
219
220
220
218
217
217
217
219
219
218
216
213
211
210
209
210
214
220
224
225
224
221
218
220
235
260
292
329
367
406
440
462
469
435
385
332
286
263
258
255
248
235
211
186
169
160
157
159
160
162
161
162
161
162
168
177
188
200
211
217
219
221
222
221
219
220
224
229
233
234
235
233
231
228
226
229
234
237
239
241
242
240
238
237
237
240
244
247
248
247
244
240
237
235
235
238
242
244
248
251
250
246
243
240
239
241
245
248
253
255
253
250
246
245
248
251
255
259
260
260
259
258
260
261
261
265
269
273
274
273
274
272
269
271
274
277
281
286
288
285
285
285
283
285
289
294
300
305
307
307
307
306
303
303
305
309
314
317
318
320
321
321
321
320
319
321
327
329
330
329
326
322
318
313
310
308
305
303
300
298
292
283
279
279
280
277
274
274
272
266
259
252
247
242
239
242
246
247
246
244
240
235
232
230
230
231
233
234
234
233
232
231
228
228
230
234
237
239
237
232
232
232
229
227
228
230
233
237
237
236
233
230
229
228
228
232
233
235
236
234
232
230
229
229
231
233
234
236
237
235
232
232
230
229
232
236
240
242
239
236
232
230
226
225
229
233
235
237
236
234
230
227
226
225
226
229
231
231
231
229
227
224
221
221
223
225
228
229
228
227
224
221
220
221
223
226
228
230
229
229
227
225
225
225
226
227
230
235
238
237
230
223
217
215
217
220
224
228
227
223
219
216
215
216
219
223
227
227
226
224
220
218
216
215
219
224
226
227
224
221
219
219
220
219
221
225
226
225
225
222
217
214
215
219
223
228
230
230
228
224
221
219
219
221
223
226
228
229
227
223
218
215
216
217
220
226
227
228
227
225
221
221
225
231
233
234
237
239
236
233
230
230
228
229
232
237
241
244
247
247
245
245
244
245
245
245
244
243
239
235
233
232
232
232
234
235
234
234
233
229
225
221
219
219
221
222
225
227
225
220
216
214
214
215
215
218
221
222
221
220
217
218
220
222
223
222
222
224
221
218
216
217
219
222
225
228
228
227
225
224
223
222
224
226
232
249
272
298
329
361
399
439
470
487
461
413
353
295
265
254
246
238
225
205
186
173
163
155
149
150
154
157
162
168
175
187
197
205
210
214
216
219
224
228
234
241
243
243
242
238
233
231
232
235
241
244
244
242
239
237
236
240
243
245
248
250
250
248
244
238
236
236
240
246
252
256
255
251
247
245
243
242
244
249
253
256
257
255
254
252
251
253
255
259
264
265
265
264
261
258
255
256
260
265
272
275
274
273
272
272
271
270
273
280
287
291
292
291
292
290
289
291
295
301
303
304
304
304
303
302
303
307
313
318
324
326
327
326
325
326
327
330
334
339
342
342
339
333
330
328
324
321
322
324
324
323
318
312
305
300
295
292
290
292
291
289
285
278
270
261
257
254
255
256
257
256
251
245
241
238
238
239
242
244
244
242
239
236
231
227
227
231
236
239
241
241
240
237
233
231
231
233
236
236
236
236
234
233
231
232
231
232
235
239
241
238
234
233
229
228
230
233
236
240
239
235
235
232
230
230
231
233
237
241
242
237
233
231
228
229
231
235
238
240
243
243
242
239
236
233
230
230
234
236
236
234
232
232
231
230
229
231
233
235
236
235
233
231
229
227
228
229
231
234
234
233
231
227
225
224
226
228
227
231
234
233
232
230
226
225
227
230
233
235
237
237
236
232
228
225
225
228
233
237
237
234
231
227
225
224
227
230
233
234
234
232
229
227
226
225
227
229
232
234
234
232
231
228
227
228
230
231
235
238
237
236
233
229
225
224
225
228
230
231
232
230
227
224
224
224
227
231
234
236
236
234
231
228
224
223
226
231
235
237
235
233
232
232
236
238
241
244
247
246
246
245
241
237
236
238
242
251
258
263
262
257
251
246
242
243
247
253
256
256
253
246
239
234
231
231
231
236
240
238
236
232
226
223
222
224
226
229
231
231
229
226
225
224
223
225
227
227
226
228
228
225
223
222
222
225
229
230
232
233
232
231
229
227
224
224
224
229
236
237
237
235
230
225
221
231
254
286
322
359
394
431
461
484
480
438
387
330
287
268
260
252
239
221
198
182
173
166
162
160
161
163
165
168
173
183
197
210
219
223
226
228
228
230
232
237
242
247
250
248
245
243
241
240
242
245
248
250
249
246
244
244
244
244
243
247
253
258
259
259
257
252
246
245
248
251
255
258
259
258
257
255
253
252
254
256
261
264
266
265
263
261
258
257
259
263
270
273
274
273
271
268
266
265
267
272
277
282
285
284
280
279
277
278
283
290
298
302
300
297
295
294
296
298
301
305
310
313
316
318
317
316
316
316
320
324
329
333
335
336
335
332
330
331
335
339
343
344
343
341
337
332
328
327
328
329
327
325
321
316
307
301
297
294
292
292
292
292
289
282
274
267
260
260
262
265
267
266
263
255
246
241
238
237
241
245
249
249
248
245
241
236
233
234
236
239
244
247
245
241
237
233
233
233
237
239
244
247
249
247
244
242
241
241
242
244
246
246
245
244
240
237
235
238
239
241
243
245
244
244
241
238
237
238
241
243
244
245
244
243
238
234
233
235
238
242
243
242
242
241
238
236
236
237
240
244
246
245
243
241
237
235
235
238
240
241
242
243
240
236
232
230
230
231
234
236
238
240
237
232
227
229
231
232
235
234
235
237
234
231
228
227
229
231
234
239
241
240
239
236
233
231
230
231
233
234
235
235
231
228
227
227
229
233
237
240
239
237
233
227
224
223
225
229
232
234
234
234
231
226
223
223
225
226
232
236
236
235
234
232
230
229
228
230
233
236
235
233
230
226
224
224
227
229
233
237
238
235
231
227
223
221
222
226
231
234
235
235
232
230
229
229
233
237
242
247
247
245
243
240
239
240
242
243
244
246
247
244
246
248
253
255
257
260
261
259
257
253
249
243
240
239
240
243
246
245
240
234
231
229
228
228
230
230
231
232
232
230
227
224
223
223
225
228
231
233
232
231
227
225
225
224
223
227
232
235
235
234
229
225
227
228
229
230
232
235
234
233
233
232
232
232
231
232
233
241
259
282
309
342
378
417
453
481
489
452
400
340
289
265
260
257
250
238
218
198
184
174
165
159
158
162
166
174
182
189
196
200
205
211
216
223
230
237
243
246
247
246
243
239
239
241
242
244
249
251
251
249
246
244
245
249
251
253
251
250
249
250
252
252
250
253
257
262
262
260
258
257
256
256
256
258
259
263
266
267
266
268
266
262
259
258
260
263
266
267
267
264
263
261
262
265
271
275
278
278
278
276
272
271
273
278
283
287
290
292
292
293
293
292
292
296
301
305
309
314
315
313
309
308
310
314
321
326
331
333
332
330
330
330
332
336
338
340
341
339
336
333
330
328
327
329
329
330
331
327
322
317
310
305
304
302
305
305
303
297
290
284
278
272
269
269
270
273
271
267
262
256
251
250
250
250
250
250
250
249
246
244
242
241
240
239
241
244
245
243
240
237
235
234
236
240
242
245
247
245
240
234
231
232
236
241
246
248
247
247
246
240
235
234
236
238
241
243
246
246
243
239
238
238
240
244
246
247
246
244
242
240
236
235
237
240
242
245
245
243
240
239
238
236
237
239
244
245
244
240
237
236
234
236
239
240
241
242
240
240
237
233
231
233
234
234
237
239
239
237
233
232
232
232
234
236
240
241
240
237
235
233
232
232
234
236
238
237
236
235
235
232
230
231
234
238
241
241
238
236
234
230
228
229
231
233
236
240
240
237
231
227
229
232
235
236
239
240
238
236
234
231
229
231
235
236
238
240
238
234
230
228
227
228
230
231
233
234
234
233
229
227
228
229
232
234
233
234
234
234
229
227
227
230
233
236
236
236
236
233
230
228
228
229
233
237
238
238
233
229
227
224
225
227
229
231
233
234
233
233
231
231
234
240
245
247
248
247
244
242
241
240
240
240
245
249
252
253
255
254
253
253
253
253
252
252
254
254
251
246
243
241
238
240
243
245
244
241
239
237
232
228
228
230
232
235
236
234
229
226
223
220
219
223
227
229
232
230
227
224
223
224
227
228
233
239
242
239
234
229
224
224
225
228
231
233
234
232
228
224
224
223
225
227
237
258
284
317
351
382
416
447
471
474
437
389
333
287
267
260
252
242
231
213
198
187
177
169
164
163
162
163
172
179
186
195
203
211
215
215
217
223
230
236
241
242
241
241
237
236
238
240
242
243
244
245
245
243
240
237
236
237
241
243
245
247
247
246
244
242
242
246
251
255
257
257
257
256
253
249
246
247
251
256
259
261
263
260
256
255
255
254
254
257
262
264
263
261
261
260
259
260
263
267
271
272
272
272
269
267
268
270
274
279
284
288
290
289
290
290
288
288
292
299
303
303
303
304
305
305
307
310
314
318
320
321
323
322
319
318
317
320
324
327
330
332
329
326
323
321
321
320
320
321
321
318
311
304
300
294
292
292
293
293
291
288
284
277
270
265
259
256
255
254
255
253
251
246
242
239
237
237
240
242
242
241
238
234
232
230
228
228
229
231
232
232
232
229
226
226
228
230
233
235
235
234
232
230
227
224
224
225
229
234
236
236
232
231
230
227
227
230
232
233
235
235
233
229
228
227
227
229
232
236
237
236
233
230
229
229
228
228
231
235
236
234
234
231
225
223
225
228
231
234
236
237
233
227
225
224
224
224
226
229
230
228
227
223
220
218
219
222
225
227
228
228
226
222
219
218
220
223
226
230
230
228
223
219
217
216
217
220
222
225
228
230
227
222
217
214
215
219
226
228
224
222
220
219
217
216
218
219
221
224
224
222
219
216
215
215
217
221
223
225
225
223
221
218
216
216
217
218
221
224
226
224
222
219
217
217
218
221
224
227
226
223
220
217
215
214
218
223
226
227
227
223
218
216
216
218
221
224
228
229
229
228
225
224
226
228
231
236
241
240
239
235
230
225
224
226
229
237
244
247
247
246
244
243
241
240
242
245
246
243
241
237
233
231
228
228
229
229
231
231
230
229
225
221
218
219
222
223
222
223
224
223
221
219
219
220
223
224
225
224
221
218
215
213
214
217
222
226
229
230
231
229
226
222
219
220
223
226
230
231
229
224
222
219
220
236
264
297
334
369
404
438
463
476
452
405
352
301
271
263
257
247
231
210
192
181
171
166
165
164
163
162
162
164
169
178
189
202
214
221
224
224
225
226
230
234
237
241
243
244
241
239
237
234
235
239
242
246
249
247
245
243
239
239
241
243
245
247
250
250
249
246
244
243
243
245
248
252
255
256
257
253
250
249
250
253
255
256
258
257
254
252
251
252
256
260
263
265
265
265
262
259
258
258
258
262
269
274
274
273
274
274
273
274
275
278
284
290
292
293
292
290
292
294
299
303
307
309
310
309
309
308
310
311
314
317
322
327
328
327
326
325
325
325
325
328
331
333
331
330
326
319
314
312
314
316
314
312
307
302
298
292
286
283
282
281
280
277
273
268
263
258
252
249
249
252
254
254
251
247
241
236
233
234
236
239
238
239
240
237
233
230
229
230
231
232
234
234
234
233
234
236
235
235
238
239
238
235
233
232
230
231
230
229
231
234
234
235
234
231
230
228
228
231
233
236
240
242
240
238
236
233
230
228
228
230
234
236
235
234
231
228
227
229
233
237
239
241
239
235
230
227
227
228
230
233
235
236
233
230
229
226
226
228
233
236
236
233
232
229
226
223
223
225
228
232
234
232
229
225
223
221
222
222
224
228
230
231
231
228
227
226
226
228
231
235
237
234
231
228
224
220
221
223
225
228
230
228
225
223
221
221
221
223
226
229
231
232
230
226
222
220
219
220
223
225
228
229
226
224
222
220
221
223
226
230
230
228
226
222
221
221
222
224
229
231
231
229
227
225
223
222
222
222
225
227
227
227
224
220
219
218
221
224
225
229
230
227
223
221
219
219
222
227
233
238
241
240
237
234
234
233
234
235
239
243
243
243
243
242
239
240
244
248
252
252
250
248
245
241
239
235
234
235
238
237
235
232
229
225
222
221
222
223
225
225
224
222
219
217
217
216
217
221
226
227
226
227
225
220
218
217
218
222
226
227
227
226
223
220
219
220
220
223
226
227
226
224
221
221
222
221
222
223
225
237
258
285
315
348
382
420
454
478
469
426
375
320
277
258
252
246
238
224
204
190
178
163
155
150
155
159
163
168
173
180
187
194
202
209
215
221
225
229
232
234
233
232
229
227
229
232
236
240
244
243
242
240
237
233
230
232
236
241
244
246
245
243
240
237
237
241
243
245
248
249
249
247
244
242
244
247
250
252
253
255
253
251
250
250
250
250
254
259
262
262
259
255
252
251
252
255
260
264
266
269
269
267
266
264
261
263
268
274
278
282
281
279
277
277
278
283
286
291
297
298
300
302
302
301
303
307
310
313
316
318
318
318
317
315
315
318
322
326
329
330
328
325
322
320
319
319
320
320
320
317
311
304
299
295
292
291
292
291
286
282
277
268
260
254
254
259
261
262
261
256
251
246
242
238
235
235
237
239
243
241
236
234
231
229
228
228
231
233
234
233
230
226
223
221
222
224
228
231
232
232
232
230
230
231
232
234
234
233
232
233
231
229
227
227
231
233
236
237
238
236
234
231
227
228
231
234
238
240
240
239
235
233
230
228
229
232
234
236
236
234
232
230
228
225
225
228
231
233
232
229
228
226
225
225
226
228
231
233
233
230
228
226
225
225
226
229
230
229
229
228
226
224
221
219
222
226
230
231
230
229
228
224
221
220
222
224
226
226
224
220
218
217
215
217
219
222
224
223
222
221
219
216
215
218
221
224
226
228
227
224
220
218
219
220
220
224
226
225
223
221
218
215
217
220
224
227
228
224
218
216
215
215
218
221
222
225
228
229
227
224
221
220
219
220
221
224
225
224
223
219
214
212
211
214
218
222
225
226
224
222
221
220
223
227
233
237
239
237
235
233
233
232
232
233
235
237
237
242
247
248
245
242
241
241
241
243
244
243
241
236
233
231
231
231
230
230
230
228
226
223
220
220
218
219
222
223
224
223
221
217
214
211
210
215
219
221
223
223
220
216
213
210
209
214
219
223
226
225
222
217
213
211
213
215
220
224
226
224
221
217
213
211
214
216
221
235
259
287
317
350
387
426
459
480
465
419
363
307
268
254
248
239
227
210
190
174
163
156
151
149
147
149
154
161
167
175
185
193
199
205
209
213
218
224
230
234
236
235
232
230
230
229
229
232
238
241
243
242
238
235
233
232
231
233
238
244
247
246
245
243
241
241
242
244
246
250
253
254
253
251
249
248
250
252
254
254
252
248
247
246
245
246
250
254
259
261
263
260
258
258
257
258
261
265
270
272
272
272
271
268
266
266
270
275
282
285
286
286
286
287
288
289
294
299
303
307
307
307
308
307
305
305
308
314
318
322
323
323
324
325
326
328
331
334
336
337
337
334
331
326
324
324
325
324
322
319
316
311
304
300
297
295
293
292
290
286
282
278
272
266
263
262
261
260
259
255
251
247
243
242
242
242
243
245
246
245
243
238
233
228
226
226
228
231
233
233
232
228
224
224
224
225
232
237
237
237
237
234
231
230
229
229
233
237
238
237
235
233
232
232
232
235
237
237
239
240
236
232
230
229
230
234
235
237
238
237
235
232
230
228
228
231
234
234
235
234
231
230
228
227
227
229
232
236
237
238
237
235
231
227
229
231
233
234
235
236
233
229
226
223
223
225
228
230
232
232
230
228
226
224
224
224
227
232
232
231
230
227
223
222
222
225
228
231
234
231
230
227
220
216
215
219
226
230
233
232
228
225
223
221
219
220
224
227
229
227
224
221
219
218
219
223
226
227
228
226
224
222
223
222
221
222
223
228
231
230
226
223
220
219
218
220
224
226
227
225
223
221
221
223
227
230
233
230
227
225
223
218
215
213
213
217
220
223
223
222
220
220
220
221
226
233
237
239
237
233
228
226
227
229
232
234
238
241
240
240
239
240
244
247
248
249
249
247
243
242
239
236
236
235
232
231
231
230
230
229
224
221
219
219
218
220
222
225
225
223
219
215
212
209
213
219
223
224
221
216
213
211
211
212
216
222
225
225
222
218
218
216
214
217
222
225
227
228
226
222
221
218
214
216
217
221
236
260
286
317
350
383
416
444
463
452
412
360
307
269
255
249
243
236
223
206
190
178
168
160
154
152
154
159
166
173
179
187
191
196
199
201
205
213
220
228
232
232
230
225
221
220
221
224
229
234
237
236
235
233
232
230
230
234
238
243
244
243
240
239
237
237
238
240
246
249
250
248
245
241
238
237
238
242
246
249
251
250
248
245
242
241
242
243
247
250
253
255
253
252
250
248
250
254
257
262
264
264
265
262
262
264
266
269
273
280
284
285
285
284
285
288
292
294
294
294
295
294
291
290
289
290
292
298
305
310
313
315
315
313
311
310
312
317
322
324
324
325
322
319
314
312
313
312
313
316
315
311
306
301
295
287
283
283
283
283
280
276
271
264
259
257
257
258
257
256
254
251
247
241
235
231
230
231
234
236
235
234
231
226
225
225
228
230
231
232
232
229
226
224
224
225
231
235
239
241
240
238
234
231
230
229
230
232
234
236
236
234
232
231
230
229
230
234
236
238
238
237
234
230
228
230
232
234
237
239
237
235
232
230
229
230
234
235
236
237
238
236
233
230
228
230
234
235
238
239
237
234
231
230
229
231
235
238
239
238
236
233
229
227
227
229
231
234
238
239
239
236
232
227
226
226
228
231
233
234
234
234
232
228
226
227
228
228
230
230
230
228
226
225
227
228
229
229
230
230
230
229
227
225
225
228
230
233
236
237
234
231
227
226
227
227
228
230
232
234
232
230
227
224
224
227
230
233
235
235
232
227
223
223
223
225
229
233
235
234
233
230
228
226
225
228
233
236
237
235
232
227
224
223
223
228
233
237
237
237
238
239
239
240
240
240
241
244
245
244
240
235
233
233
238
245
250
252
256
258
254
250
246
244
244
246
248
249
249
248
242
237
232
228
228
231
236
239
240
237
231
227
225
225
227
230
233
233
231
228
225
223
221
221
222
222
224
227
227
225
224
222
217
215
218
221
226
229
230
230
227
225
224
224
225
227
229
233
235
235
233
228
228
243
269
305
345
382
422
458
484
494
461
408
351
299
275
268
260
250
234
209
187
171
161
157
157
159
162
165
166
168
172
182
194
206
216
222
228
230
233
233
234
236
239
243
246
244
244
247
246
242
244
246
249
252
252
252
251
246
243
242
242
243
246
249
254
257
255
253
250
249
249
251
254
258
261
261
261
258
254
254
257
260
261
266
265
263
262
262
261
259
260
263
267
271
274
275
272
269
267
267
268
272
278
284
288
289
290
288
283
279
280
284
289
295
298
300
301
301
300
300
301
305
311
315
321
323
323
323
321
320
319
322
329
335
340
341
341
339
337
333
333
340
343
348
351
350
346
342
335
326
321
319
319
319
316
312
305
298
291
286
283
284
284
285
283
276
271
267
261
256
255
255
254
254
252
251
248
245
244
242
239
238
241
245
246
247
243
238
234
234
234
235
241
244
245
246
244
238
234
232
234
237
240
243
247
247
244
240
236
234
235
238
242
243
241
239
236
232
230
231
232
236
239
243
244
244
244
241
237
234
233
236
240
243
244
243
242
239
236
233
231
234
239
242
243
243
240
237
233
230
231
233
238
238
238
238
238
236
234
232
235
238
240
239
237
236
232
228
227
227
232
238
240
240
240
239
237
234
232
232
235
239
241
240
238
235
230
224
223
224
227
232
235
236
237
236
233
231
230
228
227
229
231
232
233
231
229
225
221
221
224
228
231
234
235
233
232
229
227
228
228
230
234
234
232
231
227
224
224
225
226
231
233
232
231
229
226
223
222
224
225
228
232
233
232
232
230
226
225
226
227
230
232
232
230
226
222
222
221
222
225
230
233
233
232
232
232
231
233
234
238
242
246
246
242
239
235
232
231
237
244
250
253
253
253
250
245
241
238
238
242
245
245
245
243
239
235
229
226
231
236
239
240
239
236
229
222
217
216
219
223
224
226
227
226
223
218
215
216
220
221
224
228
228
227
224
222
221
220
222
224
227
230
229
226
223
220
221
222
224
228
232
234
234
231
228
230
245
273
307
344
378
410
444
467
477
449
400
348
299
271
267
264
256
242
220
197
180
168
162
162
164
166
167
169
172
174
180
190
202
213
222
229
232
234
235
235
236
238
243
248
252
253
252
249
247
244
239
236
242
247
249
252
254
255
252
249
247
247
250
253
257
258
258
258
256
254
251
252
255
260
265
267
266
263
260
257
257
258
261
264
267
268
267
268
266
264
266
269
274
277
280
282
280
278
274
269
270
274
278
284
287
288
288
288
287
285
287
291
296
301
305
308
306
304
304
304
306
311
316
322
326
327
328
327
326
327
326
329
335
339
343
343
342
339
337
336
338
342
345
347
347
344
339
335
330
328
327
327
326
323
319
312
306
299
295
291
289
289
288
288
285
280
273
266
262
259
258
258
261
263
261
258
255
252
250
249
248
247
247
249
249
245
243
243
243
242
242
244
248
249
249
247
246
243
240
240
242
244
247
248
249
249
248
244
241
240
241
243
248
249
249
248
246
243
241
241
243
246
251
251
250
250
248
245
243
241
244
246
251
254
253
252
250
246
243
241
243
247
252
253
253
251
246
240
237
237
241
245
247
249
250
248
245
242
242
242
244
245
247
248
248
245
241
239
236
235
238
242
246
249
248
246
241
237
235
234
238
241
244
244
243
241
240
239
237
237
240
243
243
243
244
241
238
238
238
239
241
243
244
243
242
239
237
235
232
232
236
240
242
243
243
241
238
236
235
234
236
239
244
244
242
238
233
232
234
236
238
241
243
244
242
239
235
232
231
233
235
239
242
244
243
239
237
235
234
234
238
241
243
241
240
237
233
230
230
231
235
238
240
242
243
244
243
243
245
248
253
256
258
258
257
257
257
251
246
245
247
249
253
258
257
257
258
259
259
259
260
262
260
257
254
250
248
243
240
243
245
245
247
247
243
240
236
231
230
232
236
239
242
242
239
237
234
231
233
239
242
242
242
240
237
233
231
230
232
236
239
240
240
238
234
230
229
228
229
233
235
238
240
240
239
235
232
231
233
236
246
267
292
323
357
390
428
463
492
493
452
403
347
300
277
269
262
252
239
217
200
189
179
172
167
167
166
169
174
180
189
200
209
215
219
222
225
230
236
241
247
250
252
250
246
242
241
244
247
252
256
255
251
249
249
249
247
247
251
256
260
262
262
260
258
254
252
251
254
259
262
263
263
261
258
255
254
254
256
260
263
265
267
266
264
262
262
264
267
273
279
281
277
272
267
266
267
268
273
279
283
284
284
280
278
277
278
281
284
288
293
295
296
296
295
296
295
296
300
305
309
313
315
316
316
315
316
318
323
328
333
333
332
331
330
331
332
335
338
341
342
344
346
345
342
339
336
334
331
329
327
323
318
312
306
301
299
298
296
294
291
287
282
276
270
264
261
262
263
264
264
262
257
251
246
245
245
244
245
246
246
245
242
240
240
241
239
238
238
240
241
241
240
236
233
233
233
236
240
245
245
242
239
236
232
229
228
231
235
241
243
243
241
239
235
234
235
238
243
246
247
246
241
236
233
232
230
233
239
243
245
243
240
238
237
235
236
240
242
245
246
244
242
237
233
233
235
237
240
241
241
239
236
233
231
229
230
235
240
243
244
244
238
233
231
230
229
229
231
234
236
236
234
231
227
230
234
237
240
242
241
236
231
228
227
225
227
231
234
233
233
231
229
226
223
223
225
229
232
233
234
234
231
228
226
227
228
231
235
236
237
236
233
229
226
225
226
230
234
238
238
235
232
229
225
223
224
225
230
232
232
231
231
230
232
233
233
233
236
236
234
233
229
225
226
227
231
236
241
241
238
234
230
227
224
223
226
234
238
240
239
234
230
229
228
229
235
244
251
254
253
249
244
240
239
242
245
247
247
249
248
249
249
250
250
254
258
262
263
262
257
249
245
244
242
243
246
249
249
248
246
245
243
239
236
235
235
236
237
238
238
237
234
230
230
232
234
237
239
240
240
239
235
231
229
228
230
236
238
239
237
236
232
230
230
232
235
238
241
242
240
238
237
238
238
240
242
246
247
248
258
278
302
331
362
397
437
471
494
487
444
391
331
287
272
270
270
264
249
227
205
189
177
171
169
172
177
184
190
193
197
204
209
216
223
232
239
246
249
253
253
251
251
254
255
256
261
265
266
264
258
256
255
255
257
262
267
269
268
266
264
262
259
261
264
266
269
271
272
273
271
267
266
267
269
271
275
278
278
277
277
275
271
269
269
272
276
279
283
284
284
280
276
277
278
282
288
292
294
294
294
292
291
289
291
298
303
307
308
308
306
304
303
303
306
311
316
320
324
326
326
326
327
328
330
333
336
337
337
337
338
337
339
343
349
354
357
361
362
361
359
355
352
351
352
352
353
354
353
350
343
337
333
328
325
323
322
319
315
311
303
297
293
292
290
291
290
288
284
279
274
270
268
269
268
271
273
272
270
267
264
261
259
260
260
260
258
257
254
252
251
251
252
253
253
255
258
258
259
259
256
252
250
250
252
256
259
259
259
258
256
253
250
252
255
260
263
264
264
260
256
254
254
255
259
266
269
271
270
266
262
259
258
259
260
261
260
260
259
257
256
254
252
254
256
260
263
265
263
260
258
255
253
254
256
258
261
261
259
255
253
251
250
253
254
258
259
260
260
257
253
253
254
252
255
259
263
265
261
255
250
247
247
250
255
259
261
260
259
255
250
248
248
250
254
258
258
257
255
253
251
250
248
249
253
257
259
258
257
255
251
247
247
249
252
256
259
258
254
251
252
252
252
256
258
257
257
256
254
252
251
251
252
256
259
260
258
254
251
251
249
247
249
251
254
256
257
257
256
252
251
250
249
249
250
252
253
254
253
250
249
250
251
255
259
261
260
258
256
254
252
251
253
255
256
260
260
258
256
255
253
251
253
255
258
259
257
253
249
248
248
249
254
257
262
265
268
270
269
266
263
261
263
266
268
271
273
273
274
275
273
271
273
278
279
279
278
277
275
271
268
265
266
267
268
267
263
260
259
256
253
253
256
257
259
261
260
256
253
251
250
248
246
250
255
257
258
258
255
251
250
250
253
256
259
259
257
255
252
250
250
250
254
259
261
260
260
260
257
254
253
255
256
257
260
261
264
279
302
332
367
405
445
488
519
528
492
439
379
322
293
286
284
280
269
245
223
209
196
185
180
183
190
196
203
209
214
219
224
229
236
245
254
261
266
268
269
268
266
264
263
265
270
275
278
278
277
275
271
269
269
272
276
279
281
281
281
279
278
277
278
282
285
287
287
288
285
282
281
281
280
280
287
292
294
295
295
293
288
283
282
284
289
294
295
294
294
295
295
293
293
297
302
307
308
305
303
302
300
299
303
305
307
312
315
318
317
316
314
314
317
320
326
332
336
338
336
335
335
336
337
340
346
351
353
355
355
353
353
353
356
360
365
370
373
373
370
367
365
363
363
367
368
368
368
365
360
355
351
347
345
344
340
338
334
327
320
316
312
308
307
310
311
309
304
297
288
281
274
271
275
277
279
279
279
275
270
267
265
264
265
270
273
274
273
271
268
264
262
260
261
265
270
272
272
269
266
264
263
264
268
272
276
278
277
275
271
266
264
266
270
271
272
272
271
270
267
264
263
263
265
268
269
273
272
269
265
264
263
263
266
269
272
273
273
270
266
262
261
264
268
272
273
273
270
269
267
267
266
265
267
269
271
271
270
266
263
262
259
259
262
267
270
270
270
267
264
261
259
260
262
264
266
267
266
264
261
259
259
260
262
264
266
268
267
264
260
256
256
259
264
265
265
266
265
263
259
256
256
258
261
264
267
268
267
262
257
254
254
257
260
264
267
266
264
263
261
260
259
258
260
265
266
266
262
258
256
253
252
253
255
260
261
261
259
256
254
252
252
254
258
262
263
262
260
258
255
253
252
254
258
260
262
260
259
256
254
253
252
254
257
261
262
261
259
257
255
253
251
253
257
261
264
263
262
259
257
255
259
263
267
269
269
269
268
266
265
265
264
264
268
271
273
277
278
275
271
271
272
274
276
277
277
276
274
270
266
264
263
263
265
266
266
265
262
259
257
258
261
263
265
267
267
263
259
255
251
247
247
250
252
253
252
251
250
249
248
248
250
253
256
257
257
255
252
249
248
250
251
253
254
257
258
256
253
252
253
253
254
258
261
260
268
284
308
336
368
405
446
481
508
512
474
425
368
320
297
291
289
285
274
251
230
212
198
190
186
186
189
196
204
209
211
215
221
229
238
246
252
258
262
264
263
260
259
260
259
261
265
270
275
278
276
273
270
265
264
267
272
279
284
285
283
281
276
272
271
272
275
278
281
282
282
280
278
277
277
278
280
284
288
289
290
289
285
284
283
284
287
290
293
292
292
292
291
290
293
298
305
313
316
312
309
304
298
297
298
301
304
310
313
316
316
315
315
314
317
321
325
330
333
336
336
334
334
336
338
342
345
348
354
358
356
354
352
351
353
356
361
365
368
371
372
370
368
369
368
364
361
364
367
366
362
356
350
344
338
335
335
335
334
331
325
319
314
309
306
305
306
306
304
302
297
292
288
285
284
285
286
288
287
284
282
279
273
268
268
273
279
282
284
284
279
274
272
267
267
272
276
279
280
279
276
272
270
269
272
275
278
282
282
279
276
273
271
272
275
277
281
282
280
278
276
274
272
271
273
275
280
283
284
282
279
275
270
268
271
275
279
282
285
287
285
281
277
274
271
274
278
280
279
277
279
275
272
272
273
274
276
276
276
274
272
270
269
269
271
273
278
279
278
275
272
267
266
267
270
273
276
278
278
275
273
272
271
271
272
275
277
277
273
269
267
267
268
268
270
273
274
276
276
275
272
268
265
267
271
275
276
278
277
274
271
268
266
265
268
273
276
277
275
272
268
266
265
269
273
275
278
279
278
276
273
271
269
271
273
275
276
276
275
271
267
266
265
266
269
272
275
276
275
273
270
268
268
269
271
274
276
276
275
273
270
268
267
267
270
271
273
273
274
273
273
272
273
275
276
277
277
277
276
275
274
274
275
278
282
284
286
289
290
288
283
278
276
277
281
287
291
296
296
293
290
289
290
291
292
293
294
295
293
287
282
278
277
279
281
285
285
283
281
278
274
273
272
274
275
277
279
278
274
271
268
268
269
270
271
274
277
277
276
273
269
267
267
269
274
277
278
278
274
270
268
267
267
271
273
275
277
275
276
275
272
269
270
273
275
282
300
324
353
387
422
460
501
533
548
517
465
403
347
315
304
298
293
281
261
242
225
212
206
200
199
202
209
217
223
231
239
246
253
258
261
267
274
277
283
289
291
290
289
290
289
286
289
294
297
298
296
294
292
289
289
289
291
294
296
298
300
298
294
293
292
293
296
300
304
306
307
305
301
299
300
299
303
308
314
314
311
305
301
297
296
299
302
307
312
317
319
316
315
315
314
313
314
318
322
326
326
324
321
318
317
320
324
330
335
336
336
335
334
333
334
337
340
345
350
353
356
357
355
355
355
355
359
367
374
376
377
377
374
372
373
376
381
387
389
391
391
389
384
378
376
378
383
385
386
386
382
374
365
357
352
349
350
351
347
343
341
336
327
321
314
311
310
313
314
310
306
299
292
289
287
288
291
293
294
293
290
288
287
285
284
284
285
287
289
289
286
285
282
278
278
281
286
288
288
289
288
284
280
278
279
281
284
287
289
288
287
284
283
280
279
281
284
287
290
289
287
285
282
281
282
283
285
288
289
290
287
282
277
276
277
278
283
289
290
290
287
282
277
275
276
279
283
286
287
286
282
277
272
270
273
276
281
283
283
281
279
277
273
272
273
277
280
284
285
283
283
277
273
270
272
276
280
283
281
279
276
274
273
271
271
271
275
278
278
278
276
272
270
270
272
273
276
277
277
278
276
273
271
271
271
272
275
276
277
276
273
270
269
268
271
272
273
273
275
278
277
274
273
272
275
278
276
273
275
277
275
270
268
269
273
278
281
281
279
273
269
265
263
264
267
270
271
273
274
272
268
265
265
266
269
273
276
276
275
272
266
263
263
265
266
271
279
282
282
278
277
276
275
278
283
287
289
289
288
287
284
286
292
295
295
298
299
298
295
288
283
281
279
279
282
286
288
288
286
283
278
272
269
270
271
273
276
275
271
266
265
263
262
263
267
271
273
274
273
270
268
267
267
266
268
272
273
276
276
273
269
267
265
266
268
272
274
274
271
268
267
266
267
270
272
275
276
275
271
268
277
298
327
363
401
441
481
511
527
502
455
402
350
318
310
309
306
296
277
252
232
218
209
206
208
211
215
219
220
221
224
228
235
246
256
266
273
276
277
277
276
275
276
279
284
289
288
290
288
284
283
283
285
288
291
292
292
291
289
287
285
283
285
289
294
297
298
296
295
293
291
290
293
296
298
300
301
301
301
299
298
297
297
300
303
306
307
308
306
304
301
302
305
310
317
318
318
317
314
310
310
310
314
321
325
328
328
327
327
326
326
326
328
331
337
339
341
343
343
342
342
343
347
353
359
364
364
364
365
364
362
364
367
370
372
374
377
378
376
374
370
371
377
381
385
386
385
379
374
367
361
356
354
355
356
355
351
346
338
331
326
323
322
321
321
319
317
313
307
301
297
296
297
300
302
301
300
295
290
286
281
282
284
285
287
287
289
287
284
282
284
283
282
284
286
289
290
288
284
282
282
284
285
289
293
294
293
289
285
284
283
282
285
288
291
292
290
287
283
280
280
282
284
288
291
293
291
288
286
282
281
282
286
289
291
291
288
285
281
281
281
283
285
288
289
290
289
288
285
282
281
283
285
289
292
292
290
287
285
283
282
285
289
291
292
292
288
283
278
275
278
282
285
287
289
289
286
283
278
274
275
279
283
289
292
291
288
284
279
275
276
278
282
286
289
288
287
284
280
276
277
281
283
287
289
287
286
285
283
282
283
284
285
285
287
287
284
282
279
278
281
285
291
295
296
293
288
283
277
275
276
281
283
285
287
289
286
281
277
278
281
283
287
289
290
288
285
281
278
278
278
281
285
288
289
286
282
281
279
276
277
281
285
289
289
287
286
283
284
284
285
288
291
291
293
294
294
292
295
295
294
295
298
301
301
303
305
303
302
303
303
306
309
308
305
302
298
295
292
291
290
293
296
298
298
297
295
290
286
283
281
280
283
284
283
280
277
274
275
275
275
280
284
285
285
283
280
277
276
276
279
283
287
289
287
285
282
280
277
277
280
285
289
293
291
290
287
285
284
283
285
287
292
308
334
363
395
429
467
507
541
557
529
478
417
360
327
315
309
303
292
272
251
234
223
217
213
211
214
219
226
235
242
252
258
264
268
271
275
280
286
293
298
301
299
299
298
297
298
299
302
306
308
309
307
304
301
299
298
300
305
307
310
314
314
312
307
305
305
307
310
314
315
317
316
315
313
310
310
314
319
325
328
327
323
319
315
311
310
311
315
320
324
324
323
321
318
319
321
324
328
334
337
336
334
331
330
328
331
337
342
346
348
350
349
346
346
347
351
356
361
367
368
368
368
368
368
370
372
376
379
383
388
390
391
390
389
387
389
392
395
398
401
398
397
394
392
392
389
389
392
392
390
387
382
375
368
364
363
362
359
357
356
352
344
337
332
329
326
326
326
326
324
322
319
315
309
307
306
306
310
310
310
307
305
301
298
295
296
298
300
302
303
299
292
288
287
286
290
293
296
300
301
298
295
294
294
293
294
296
300
302
302
301
298
294
292
292
293
297
301
303
302
299
296
293
292
292
295
298
302
304
304
303
300
295
289
287
288
291
295
297
299
298
297
294
292
293
296
297
296
297
296
294
292
291
291
291
290
294
297
297
297
297
295
291
286
285
287
290
292
293
294
292
288
286
283
284
286
290
292
294
295
293
288
282
279
282
285
290
293
294
293
290
288
287
287
288
288
289
290
290
289
289
288
286
285
286
287
288
287
289
290
287
284
281
281
284
287
290
292
291
288
286
281
279
278
279
285
290
293
291
288
286
284
283
284
287
289
290
290
287
286
288
286
285
285
285
286
288
289
289
287
285
281
279
278
279
281
285
287
287
285
283
281
280
279
279
281
285
286
286
286
285
284
284
285
288
292
297
301
303
301
296
290
287
289
292
296
305
311
312
309
305
300
297
297
297
301
306
307
305
302
298
294
290
288
290
292
295
296
293
290
286
281
277
278
282
286
288
292
292
287
281
276
274
273
273
276
281
282
283
282
279
277
276
276
278
282
284
284
283
280
277
276
275
276
281
286
288
288
289
286
282
280
279
280
292
314
344
377
411
445
481
510
529
521
482
435
386
344
324
317
309
298
281
261
248
238
230
224
218
217
217
219
223
229
238
249
258
267
272
273
275
278
281
286
290
295
299
299
298
296
295
293
292
291
294
298
300
302
302
300
297
294
293
293
296
301
305
306
304
302
301
300
301
305
308
309
310
311
309
306
304
303
305
308
312
314
315
315
315
311
310
309
311
313
316
320
323
324
323
320
318
316
317
319
323
328
332
331
329
327
327
328
329
330
335
341
343
341
338
339
343
346
350
356
360
363
366
366
364
362
360
361
365
372
379
382
383
383
381
378
377
378
381
385
389
392
393
390
386
381
375
372
370
370
372
374
373
368
359
351
344
343
342
343
344
342
336
330
324
317
314
310
308
309
310
310
309
306
302
296
293
293
293
293
295
295
295
293
289
286
284
285
287
291
295
298
298
295
287
283
281
281
285
291
297
298
296
291
285
281
279
279
282
285
291
293
293
290
287
284
282
284
287
290
293
296
295
291
288
287
285
284
286
290
292
292
291
289
285
281
280
280
284
288
293
294
293
291
289
287
285
285
287
290
292
292
291
291
289
288
288
290
290
291
290
286
283
282
281
281
282
286
287
289
288
289
289
286
283
280
279
280
282
286
285
284
283
282
280
279
279
282
286
289
291
292
290
285
283
283
282
283
285
287
290
290
288
286
283
280
280
282
286
289
291
291
288
284
282
281
282
285
287
288
290
290
287
283
282
281
281
284
289
293
293
292
290
286
283
281
283
285
288
288
290
293
288
284
282
281
282
283
288
291
293
293
291
287
285
287
289
291
295
302
307
309
309
307
301
293
290
292
299
304
307
309
307
303
303
305
307
311
313
313
312
310
305
301
297
293
294
295
297
297
298
297
293
290
285
283
284
286
289
293
294
292
288
284
282
282
284
285
288
291
292
290
289
285
282
282
284
289
295
298
297
296
295
291
286
285
286
289
292
292
292
292
290
288
285
286
287
290
304
326
354
386
418
451
488
521
545
539
497
445
389
343
323
316
310
302
288
268
254
244
236
228
222
221
224
229
232
237
248
259
268
274
278
279
280
286
292
299
306
308
308
308
307
302
300
301
302
305
307
309
310
308
305
301
301
303
307
311
314
315
316
314
308
303
306
308
312
316
318
319
320
318
314
312
312
316
319
323
325
325
325
323
319
317
317
318
323
328
330
331
329
328
327
326
325
327
330
335
340
342
342
341
339
337
338
340
343
349
353
354
354
353
351
352
355
359
364
368
372
374
374
372
373
375
380
387
392
395
396
394
392
387
384
384
386
390
395
400
404
404
401
397
392
389
389
390
393
394
393
386
379
373
368
366
362
360
356
355
355
350
345
338
332
325
323
325
326
329
329
327
324
321
315
310
307
305
306
307
308
305
301
299
296
295
295
297
301
301
303
302
302
300
295
293
293
297
302
305
307
307
303
300
298
298
299
302
305
307
304
303
302
301
302
301
301
302
303
302
301
300
298
295
293
294
298
304
307
308
307
302
298
296
294
295
297
300
302
304
303
300
298
295
294
294
295
297
299
298
298
297
294
292
291
292
292
296
299
300
301
300
300
301
301
298
293
291
292
292
292
292
291
289
287
287
289
294
297
297
298
296
292
287
286
287
290
292
296
298
298
296
293
289
287
287
289
292
296
297
297
296
292
289
288
289
292
293
294
298
299
297
292
285
284
285
289
293
296
296
294
291
289
286
284
286
288
291
294
296
296
293
289
287
287
287
288
291
295
296
295
294
291
288
286
287
288
290
292
295
296
296
295
290
286
287
290
295
298
299
298
293
288
288
287
285
287
288
289
290
290
289
288
287
287
289
294
301
307
309
308
304
298
295
293
294
300
304
309
312
313
310
307
307
306
307
308
311
316
317
313
309
309
305
301
299
302
302
301
299
295
290
286
283
282
282
286
290
293
292
290
287
284
280
280
285
290
291
289
287
288
285
282
282
282
285
288
290
292
291
288
285
282
283
285
289
293
296
295
294
292
290
288
287
288
289
298
318
344
376
411
446
481
516
541
548
513
464
408
358
328
320
313
304
292
274
258
245
234
226
221
218
218
222
226
232
241
251
261
267
270
274
280
285
290
295
303
305
305
303
301
300
297
296
297
300
305
310
311
309
307
304
300
298
298
302
308
310
312
312
312
315
315
314
313
310
307
307
312
313
312
311
312
312
316
320
322
321
318
317
316
315
314
314
316
319
321
323
324
324
322
321
321
323
325
329
333
336
337
336
334
333
333
333
337
341
345
347
346
347
346
345
346
350
357
363
368
371
371
371
370
367
366
366
367
371
377
385
387
386
386
383
382
385
389
393
395
396
395
391
386
384
384
386
388
387
385
381
375
369
364
359
354
352
351
350
349
347
343
337
331
326
324
319
317
318
319
318
314
309
305
303
301
301
304
306
306
305
300
295
291
290
290
291
293
298
298
295
292
290
288
287
285
289
292
296
299
299
298
298
297
294
294
294
297
300
301
298
295
291
288
285
285
288
294
300
302
301
299
294
291
288
288
291
293
296
298
298
299
297
293
290
291
292
294
297
299
299
297
293
289
287
286
289
293
296
295
294
291
288
285
284
286
290
294
297
297
297
295
291
288
287
287
291
294
295
295
294
291
286
282
282
283
287
290
292
293
293
292
290
286
285
285
287
291
293
292
288
287
285
283
283
284
286
292
297
298
292
289
287
285
284
284
288
292
294
295
295
293
290
287
287
288
290
292
292
291
288
286
284
284
285
287
288
291
292
291
288
287
284
282
283
285
289
293
298
298
296
294
290
285
284
285
289
292
293
293
290
288
285
284
285
286
289
294
297
296
294
290
288
286
287
289
292
296
300
301
300
298
299
298
296
299
304
307
309
305
301
297
295
297
303
310
313
317
320
318
314
307
304
302
305
307
309
311
310
307
305
301
295
293
295
297
299
303
304
299
294
290
288
287
287
289
293
296
298
297
293
290
287
285
287
288
287
292
295
291
289
289
287
287
290
292
296
298
297
297
294
292
290
289
291
292
295
298
298
297
294
290
293
308
335
369
408
447
485
521
544
551
517
466
412
363
338
334
331
323
305
278
256
239
232
230
232
234
235
236
239
239
242
250
260
270
279
288
296
299
299
298
298
299
303
306
311
313
315
314
312
309
306
305
305
310
314
317
318
319
317
317
317
315
317
319
319
318
317
316
317
316
316
317
321
323
323
325
325
323
321
318
317
316
320
327
331
333
330
326
325
324
324
327
332
338
341
341
341
341
339
337
337
338
341
345
350
355
354
353
350
348
347
349
352
358
364
367
369
368
366
364
362
364
371
377
382
386
387
387
385
384
387
388
393
395
399
402
405
405
403
400
401
404
405
407
408
408
405
401
398
391
388
388
388
387
384
379
375
369
363
357
353
351
351
350
351
346
340
334
329
327
325
325
327
327
328
325
321
317
316
314
313
310
310
309
305
302
302
301
303
303
303
306
308
310
311
311
307
305
303
301
301
303
306
311
311
311
309
306
303
302
303
307
313
317
317
316
310
304
301
303
307
313
318
317
314
310
305
301
297
297
300
303
306
309
310
309
306
302
301
301
302
303
306
310
311
310
308
303
299
299
301
302
305
308
310
310
306
303
301
299
300
302
304
307
308
307
306
304
302
302
302
301
299
304
309
306
303
300
296
295
296
301
303
306
307
305
304
300
296
294
297
300
303
304
305
304
302
299
297
296
297
298
301
303
304
302
300
298
298
299
301
303
306
308
307
304
301
299
298
297
298
302
305
306
305
301
300
296
295
294
297
301
305
308
307
303
302
302
299
300
303
307
310
311
307
300
291
288
288
289
294
299
301
303
303
303
301
298
297
298
302
305
306
306
304
302
299
297
296
296
298
300
303
306
305
301
296
294
294
296
300
304
308
309
307
307
307
306
308
312
315
316
315
313
311
309
308
310
314
316
317
321
323
322
317
315
313
313
314
315
316
316
316
314
311
308
305
301
300
299
300
301
302
302
298
295
291
289
289
292
294
298
300
299
297
294
292
291
290
294
299
300
300
299
295
291
288
286
287
289
292
296
299
300
301
299
295
293
295
297
300
303
303
303
300
296
299
318
347
384
424
463
504
538
559
552
504
451
397
354
338
335
332
324
306
278
255
238
228
225
229
235
238
240
242
241
244
251
258
269
283
296
302
306
308
307
305
306
308
310
313
315
315
313
311
309
307
307
309
312
314
317
319
319
317
315
313
312
313
316
321
323
323
322
319
316
314
314
315
319
322
322
324
323
321
320
320
321
324
328
332
334
334
334
331
327
326
325
328
333
337
339
340
341
340
337
336
336
339
344
349
351
351
350
348
346
344
346
351
355
361
366
367
366
364
363
364
366
370
375
379
381
380
379
378
378
381
385
389
394
399
401
402
402
400
396
397
399
401
403
404
402
399
397
394
389
387
386
385
385
383
380
375
370
363
356
349
346
348
348
347
345
341
337
329
321
315
311
312
316
318
317
317
316
312
308
306
305
305
306
308
306
304
302
299
298
298
297
299
303
305
305
307
305
301
299
298
300
303
305
307
307
304
304
300
298
298
297
298
302
305
305
304
303
302
300
300
301
304
306
305
305
304
301
299
297
297
298
299
303
305
306
305
301
298
296
293
294
296
300
303
303
299
295
292
290
291
292
296
299
301
301
300
297
293
289
290
292
295
298
299
299
298
296
291
287
288
291
297
300
301
301
299
296
292
290
289
292
297
299
298
299
297
294
290
289
288
290
291
295
297
293
291
290
289
285
284
288
292
295
297
297
295
290
284
279
280
283
286
291
293
291
291
290
288
288
290
292
295
296
295
295
293
290
286
285
287
289
290
290
290
289
287
285
284
285
286
288
291
291
291
290
287
283
280
280
282
284
287
291
291
289
285
282
280
280
282
284
287
290
292
294
295
293
291
291
292
296
300
300
302
303
300
295
291
290
294
298
305
310
313
310
306
304
301
299
298
301
305
308
307
303
299
296
294
293
292
292
294
295
294
291
285
282
282
281
283
286
288
288
288
287
288
286
283
283
285
288
290
291
288
284
281
278
276
277
279
282
286
287
286
284
282
280
279
279
279
284
287
289
288
286
282
279
278
279
284
300
325
355
388
418
448
482
510
531
521
481
432
382
344
329
323
316
305
290
271
256
244
235
230
226
222
222
225
230
235
242
252
262
269
274
277
278
281
286
290
296
299
300
300
301
301
302
303
304
307
309
310
308
307
307
306
304
304
308
314
320
323
323
319
312
308
305
306
311
315
317
317
316
315
313
311
309
312
316
320
323
325
324
322
318
316
316
317
320
326
328
333
335
333
329
327
326
326
331
335
340
344
346
345
343
340
339
341
345
349
354
357
358
358
358
356
356
358
361
368
372
374
375
376
374
372
372
375
379
383
387
389
390
389
388
386
385
389
393
396
401
404
403
400
395
391
388
387
389
390
391
389
383
378
374
366
362
362
361
360
358
355
352
347
339
333
327
324
325
327
328
326
321
316
313
310
306
307
311
313
314
314
310
305
302
300
300
301
306
308
310
310
309
306
303
301
300
302
305
308
310
308
306
304
302
300
299
302
307
310
311
310
306
302
302
299
298
302
304
306
307
305
303
302
300
298
299
299
302
305
307
308
306
304
301
298
298
301
305
307
308
306
304
301
300
298
297
300
304
305
308
307
303
298
295
293
294
298
300
303
305
304
301
298
295
294
293
296
301
302
301
301
299
295
294
294
297
299
301
302
303
301
299
298
296
294
295
297
299
301
303
302
300
298
293
290
291
293
298
302
303
303
302
299
295
293
295
296
298
300
301
298
293
290
288
288
290
291
295
300
302
302
300
297
295
297
298
298
301
303
301
299
298
295
293
292
293
296
299
301
300
298
296
295
292
292
294
298
301
302
301
299
296
294
293
293
295
296
299
300
299
299
298
295
293
294
297
298
299
303
303
299
298
297
298
302
306
312
318
319
317
315
311
306
307
311
316
321
324
324
323
321
316
311
308
309
313
317
319
319
314
311
306
301
299
299
303
305
308
309
308
305
299
293
289
290
294
296
299
300
300
297
294
292
290
292
294
297
302
302
299
295
292
290
289
291
295
299
301
302
302
299
296
294
293
294
298
302
305
304
303
300
296
301
316
342
378
418
457
495
530
555
564
530
478
424
375
348
340
332
319
302
278
258
243
236
230
229
232
237
240
242
243
246
254
264
276
286
295
301
302
304
304
303
304
307
310
313
316
317
316
316
316
317
317
318
320
321
321
321
321
317
314
314
316
318
322
326
327
327
326
322
320
319
319
323
327
332
334
334
330
326
324
323
324
328
331
334
335
337
334
331
329
329
331
333
337
342
346
349
348
344
340
340
341
342
346
352
356
357
355
353
352
351
354
359
363
366
368
369
368
368
367
368
372
378
383
386
389
389
387
386
386
387
390
395
401
404
407
405
404
404
403
404
408
412
413
412
410
408
405
402
398
396
396
395
395
393
389
385
377
369
364
361
358
356
354
351
349
345
338
332
328
326
326
328
328
326
324
322
316
312
309
307
309
312
315
316
316
315
312
308
304
302
305
309
312
316
317
316
312
307
305
305
307
310
312
313
313
312
309
306
305
306
309
313
315
314
312
309
306
305
305
306
308
311
314
314
311
307
305
304
303
304
307
311
313
313
313
309
305
301
301
304
308
313
317
317
316
313
309
303
299
302
303
306
308
309
308
305
302
299
299
301
303
307
309
308
308
305
301
300
300
302
302
304
307
309
308
306
303
301
299
301
305
308
309
307
305
304
301
298
296
296
300
304
304
304
304
301
299
298
297
300
302
303
305
304
303
300
297
295
294
296
298
300
302
303
301
298
296
295
295
296
297
300
302
303
301
301
299
298
297
298
300
305
306
304
301
298
295
294
294
296
299
301
303
302
300
297
293
291
293
296
298
300
302
302
301
298
295
294
295
295
298
304
308
306
303
302
302
302
304
307
312
317
317
313
309
306
305
308
314
319
322
324
324
323
317
311
307
307
309
312
315
316
315
311
307
303
299
297
298
299
301
303
303
302
298
290
286
287
286
291
297
301
302
301
296
293
291
290
290
291
293
296
297
296
295
291
290
289
291
293
296
297
298
296
292
289
288
289
293
296
300
301
300
299
294
291
304
330
362
398
440
481
515
538
548
519
469
415
370
345
343
341
331
314
292
267
248
238
234
232
232
235
238
239
241
243
247
255
264
275
285
292
296
298
298
298
298
302
306
309
312
314
312
310
308
307
307
308
312
314
316
317
315
313
310
309
312
315
316
321
323
324
324
322
320
317
315
316
319
323
327
329
327
323
322
321
321
323
324
327
329
328
329
330
326
324
325
327
331
335
336
336
337
338
335
333
334
339
343
347
350
351
351
349
346
346
346
351
355
360
365
368
366
363
362
362
362
366
373
379
383
383
383
383
382
383
383
386
391
395
398
400
399
397
395
394
395
395
397
401
403
403
401
396
391
387
382
380
381
382
380
376
370
364
356
350
345
344
343
341
341
340
335
328
323
319
317
316
317
319
318
316
312
309
306
304
305
308
309
310
310
309
306
303
297
296
295
296
301
304
306
310
308
305
303
301
300
300
304
308
310
308
305
300
297
297
297
298
303
307
308
306
303
302
299
296
296
299
303
306
305
303
300
299
297
296
299
301
303
304
305
305
301
299
295
293
296
299
303
304
304
303
300
297
296
294
296
298
301
303
304
302
300
297
296
295
296
298
299
300
299
298
295
293
291
291
293
295
297
298
298
295
294
291
290
292
294
296
297
299
300
299
297
293
291
290
292
297
299
300
299
296
293
291
289
291
293
297
299
300
298
295
292
291
290
292
297
301
303
303
299
296
290
288
288
289
291
295
298
299
298
294
291
290
290
292
296
300
298
297
299
298
294
292
290
291
296
300
303
302
299
296
294
293
293
296
301
304
308
311
312
311
311
308
305
305
306
309
314
318
320
321
319
316
316
315
317
316
315
317
319
317
313
308
307
310
311
312
311
308
306
302
299
297
298
302
302
303
303
301
299
296
294
294
293
295
298
303
303
303
300
296
294
293
294
297
299
302
304
304
301
300
297
295
294
296
299
301
304
305
305
303
302
301
301
302
304
306
318
339
365
396
430
464
501
534
559
550
505
450
394
354
337
333
329
319
304
285
268
254
241
235
231
231
236
242
249
255
261
269
277
282
285
289
295
302
308
311
315
317
316
313
311
310
312
315
320
325
326
327
326
323
320
320
323
325
326
326
327
326
325
323
321
320
321
324
328
330
331
328
327
326
323
323
325
329
333
335
336
335
333
330
330
331
333
337
343
346
345
344
340
337
338
337
341
346
349
350
351
351
350
348
347
347
350
355
360
364
365
363
361
359
360
364
367
372
379
383
383
381
380
379
378
381
385
391
395
399
401
400
398
394
394
396
401
406
410
413
415
412
410
407
406
406
404
403
404
403
398
394
388
381
374
371
370
371
368
365
361
355
347
342
339
337
337
336
336
335
332
327
321
317
314
313
315
318
320
320
318
315
311
309
308
310
312
311
312
313
312
309
307
305
305
305
310
313
315
315
313
311
308
307
305
306
308
311
313
314
312
310
308
307
309
309
310
312
313
313
313
309
304
304
305
308
312
316
317
315
312
310
310
309
307
307
311
314
314
315
314
309
306
305
306
307
309
312
313
312
311
307
304
302
304
304
305
307
309
310
308
305
301
300
302
304
307
310
312
311
308
303
298
298
301
302
304
305
306
308
306
305
303
301
301
303
304
307
309
308
306
304
300
298
298
299
303
307
308
308
304
301
300
299
300
303
307
307
306
301
297
299
299
297
298
300
304
308
307
302
300
299
297
297
299
301
302
306
306
306
303
300
296
296
299
303
305
306
306
304
303
300
298
297
299
302
305
308
307
304
300
298
297
297
299
301
305
306
307
305
302
300
298
297
298
301
304
306
306
305
306
304
300
300
305
312
319
323
323
320
315
311
309
310
313
318
324
326
326
325
323
320
317
316
318
320
322
324
323
318
311
306
305
305
306
308
311
312
311
306
301
298
295
296
298
300
303
303
303
301
297
294
293
293
297
301
304
306
308
304
299
295
292
291
294
302
307
309
308
305
300
297
295
294
296
298
302
306
307
305
300
296
293
295
307
331
362
398
432
461
497
530
553
551
511
460
408
365
344
335
323
309
292
272
258
248
242
237
234
235
235
236
240
246
254
264
276
286
291
295
298
299
302
305
310
314
316
316
315
315
312
311
313
316
318
321
321
322
319
316
317
318
318
320
322
325
328
326
324
321
320
320
320
321
324
329
331
332
330
329
326
324
325
328
331
333
336
337
335
332
329
328
329
333
337
341
343
342
339
337
336
336
340
344
349
352
351
352
351
350
348
348
351
354
358
361
364
366
366
364
364
363
365
370
376
378
384
386
383
381
380
380
382
386
390
393
397
398
396
393
392
393
397
402
406
409
411
411
409
403
397
392
391
391
395
395
394
390
382
375
368
362
360
359
358
357
354
350
344
337
331
327
325
326
327
327
327
323
316
311
310
308
309
312
313
316
316
315
310
305
300
297
296
302
307
308
308
307
305
303
303
303
303
305
308
309
308
305
305
303
300
301
304
306
308
310
312
312
307
303
300
302
304
307
308
309
309
308
302
297
296
298
301
304
306
307
307
307
304
299
298
299
302
305
308
308
307
303
300
298
297
297
300
304
306
308
306
302
296
291
291
293
296
300
302
305
304
301
295
292
291
290
291
294
295
296
294
293
291
289
287
289
294
299
302
301
299
296
292
290
289
291
293
296
298
298
295
291
286
284
283
285
288
292
295
295
292
290
287
285
285
287
289
292
295
296
295
291
288
286
283
283
286
289
288
289
288
286
283
282
283
286
291
295
297
295
294
289
284
282
282
281
284
288
289
289
287
284
283
281
278
281
285
288
289
287
285
283
281
280
282
286
291
295
297
296
294
292
293
293
293
297
300
302
303
302
299
297
299
300
302
307
311
311
310
306
301
298
296
295
296
298
299
299
300
297
294
290
286
282
282
284
286
287
287
283
278
281
280
278
281
284
287
286
284
283
282
278
276
277
277
281
284
285
287
285
282
280
277
275
277
280
282
286
287
285
281
280
279
279
280
282
284
286
285
283
289
307
332
363
401
437
477
510
532
527
490
438
381
340
326
325
321
312
296
271
253
237
226
219
219
220
222
226
230
230
231
235
242
253
261
270
278
284
288
288
288
285
283
286
292
296
299
300
302
299
295
293
294
296
297
300
304
307
306
304
302
299
299
297
298
305
309
308
306
305
304
302
302
303
306
310
312
312
311
309
308
304
302
301
306
310
315
318
318
319
317
315
315
316
316
318
323
324
325
324
322
321
319
321
327
332
335
337
337
335
333
331
332
336
342
347
350
352
353
354
352
350
351
354
359
366
369
371
370
369
369
368
370
375
379
383
386
385
382
380
378
377
376
379
383
384
384
382
379
374
368
363
359
356
356
355
355
353
346
339
334
328
322
320
320
321
322
320
316
311
305
302
296
294
295
296
296
292
290
291
287
284
283
286
290
295
295
291
287
282
280
281
284
285
287
290
290
289
287
285
282
280
281
285
288
290
291
292
290
286
283
282
282
285
289
292
295
293
289
286
284
280
278
281
285
287
289
289
287
285
284
285
286
286
289
292
292
289
284
284
283
284
285
287
290
292
291
290
289
286
284
282
282
283
287
289
288
287
284
281
279
278
279
283
285
287
288
287
285
284
282
281
282
283
287
290
290
288
284
281
280
280
281
283
288
290
290
289
287
286
285
283
286
288
289
288
287
285
282
279
278
280
281
285
289
289
288
287
285
282
279
278
280
283
287
288
289
287
284
281
281
283
286
288
290
292
291
289
284
281
282
285
288
290
289
290
288
285
284
282
281
283
286
289
291
291
291
288
284
281
281
285
290
295
299
299
299
299
297
295
293
294
295
299
305
307
309
309
306
302
301
303
306
308
309
309
307
304
300
298
295
295
296
299
300
298
296
292
288
286
285
284
284
287
290
291
289
287
284
281
280
280
281
284
286
288
285
283
280
278
279
282
284
286
290
289
284
281
279
278
278
280
284
286
288
290
289
286
286
286
285
285
287
290
294
307
328
355
386
419
455
493
526
550
537
488
433
376
334
318
313
309
300
283
261
244
229
218
211
210
213
219
225
233
237
243
253
260
265
269
276
284
291
296
299
299
297
296
294
295
298
301
305
309
310
308
305
303
300
298
300
304
308
312
313
313
311
308
306
306
308
311
314
317
318
316
312
308
307
309
310
312
318
321
321
320
319
317
316
317
320
323
324
325
326
328
328
326
323
322
325
328
333
335
336
336
334
333
331
331
334
339
343
348
349
348
347
347
345
346
350
356
362
366
367
369
367
365
366
368
373
378
384
385
386
387
385
385
384
385
387
392
397
399
399
397
394
392
390
388
390
394
395
394
391
385
380
376
370
366
365
362
361
357
352
348
342
334
329
328
330
331
330
325
319
315
312
309
306
305
306
308
310
311
308
303
298
295
295
295
296
299
302
303
302
299
296
293
292
294
297
300
303
304
303
300
296
292
293
296
301
301
302
302
300
296
294
293
294
295
300
304
305
307
307
303
299
295
294
297
301
303
305
305
304
299
296
294
292
293
296
299
302
303
301
299
298
296
294
295
296
301
303
301
299
297
294
292
293
296
299
301
302
300
298
297
293
291
290
292
297
300
300
299
298
294
292
292
294
296
299
303
303
299
294
290
286
288
290
294
297
300
301
300
296
292
291
290
289
292
296
298
299
299
298
296
292
290
291
293
294
297
298
297
294
294
292
291
293
296
300
303
303
301
297
293
288
286
288
292
297
300
302
302
301
298
294
292
293
293
295
298
298
297
297
296
292
288
286
289
294
298
300
300
296
293
290
291
291
293
298
301
303
301
297
294
291
291
293
295
300
303
304
301
298
295
294
293
296
301
306
310
314
315
312
309
304
303
305
310
314
316
319
319
315
311
312
313
315
316
318
321
321
318
314
310
305
302
302
304
308
309
307
304
299
296
295
296
296
297
299
298
299
297
294
291
290
290
293
295
298
299
297
295
291
288
288
289
291
293
295
296
297
296
294
292
292
294
299
303
305
305
302
298
295
292
292
293
296
300
308
327
353
383
416
448
485
523
551
558
521
470
413
363
336
328
321
313
300
280
261
248
236
228
224
224
229
235
241
246
254
263
270
276
280
284
288
296
301
0
