-1093
-1092
-1091
-1090
-1092
-1094
-1096
-1098
-1099
-1100
-1100
-1100
-1100
-1099
-1099
-1100
-1100
-1101
-1101
-1101
-1101
-1100
-1100
-1101
-1101
-1101
-1101
-1102
-1103
-1103
-1103
-1102
-1101
-1102
-1102
-1102
-1102
-1103
-1103
-1103
-1103
-1103
-1102
-1102
-1101
-1102
-1101
-1102
-1104
-1104
-1104
-1104
-1103
-1102
-1102
-1103
-1104
-1104
-1104
-1104
-1104
-1104
-1103
-1103
-1103
-1104
-1104
-1103
-1103
-1103
-1104
-1104
-1103
-1103
-1103
-1104
-1104
-1104
-1104
-1104
-1104
-1103
-1103
-1102
-1102
-1103
-1103
-1103
-1103
-1102
-1103
-1103
-1102
-1102
-1102
-1103
-1103
-1103
-1104
-1103
-1103
-1102
-1102
-1101
-1101
-1102
-1102
-1103
-1103
-1103
-1103
-1101
-1100
-1099
-1098
-1098
-1097
-1097
-1097
-1097
-1096
-1094
-1092
-1091
-1091
-1092
-1092
-1092
-1092
-1091
-1090
-1087
-1083
-1079
-1076
-1075
-1075
-1078
-1080
-1083
-1085
-1087
-1088
-1089
-1091
-1092
-1094
-1094
-1095
-1095
-1096
-1099
-1100
-1101
-1103
-1104
-1104
-1104
-1104
-1104
-1105
-1104
-1104
-1105
-1106
-1106
-1107
-1107
-1107
-1107
-1106
-1105
-1104
-1104
-1105
-1106
-1107
-1108
-1108
-1109
-1111
-1114
-1120
-1128
-1137
-1145
-1152
-1154
-1148
-1136
-1115
-1092
-1059
-1011
-956
-895
-833
-777
-723
-669
-619
-578
-540
-511
-491
-490
-520
-565
-619
-689
-769
-855
-942
-1021
-1089
-1120
-1130
-1137
-1140
-1135
-1129
-1121
-1114
-1106
-1097
-1091
-1086
-1083
-1080
-1079
-1077
-1077
-1076
-1077
-1077
-1078
-1078
-1078
-1078
-1078
-1076
-1074
-1074
-1073
-1073
-1073
-1073
-1073
-1073
-1072
-1071
-1068
-1067
-1067
-1066
-1065
-1065
-1064
-1063
-1061
-1060
-1059
-1058
-1058
-1058
-1057
-1056
-1056
-1054
-1052
-1051
-1049
-1049
-1048
-1047
-1046
-1046
-1044
-1043
-1041
-1038
-1036
-1035
-1034
-1033
-1032
-1031
-1029
-1026
-1024
-1021
-1019
-1018
-1015
-1012
-1010
-1008
-1006
-1004
-1001
-999
-996
-993
-991
-990
-988
-985
-982
-980
-977
-973
-971
-968
-966
-965
-962
-960
-958
-955
-953
-952
-951
-950
-949
-949
-948
-947
-946
-945
-944
-943
-943
-943
-944
-946
-947
-949
-952
-955
-958
-962
-966
-971
-976
-982
-987
-993
-999
-1003
-1008
-1013
-1016
-1021
-1026
-1031
-1035
-1040
-1044
-1047
-1050
-1052
-1054
-1056
-1059
-1060
-1063
-1066
-1068
-1069
-1070
-1069
-1069
-1070
-1071
-1073
-1074
-1074
-1074
-1074
-1073
-1072
-1072
-1073
-1073
-1074
-1075
-1076
-1076
-1075
-1075
-1073
-1073
-1074
-1074
-1074
-1075
-1075
-1075
-1074
-1073
-1072
-1070
-1071
-1071
-1070
-1070
-1070
-1070
-1071
-1070
-1070
-1070
-1069
-1070
-1070
-1070
-1070
-1071
-1071
-1071
-1070
-1070
-1069
-1070
-1071
-1072
-1072
-1073
-1073
-1073
-1072
-1072
-1071
-1071
-1072
-1074
-1075
-1076
-1077
-1076
-1076
-1076
-1076
-1077
-1078
-1078
-1078
-1078
-1077
-1077
-1077
-1078
-1079
-1079
-1080
-1081
-1081
-1081
-1080
-1080
-1080
-1080
-1080
-1080
-1081
-1082
-1083
-1083
-1082
-1082
-1081
-1081
-1081
-1082
-1082
-1083
-1084
-1084
-1084
-1083
-1083
-1082
-1082
-1083
-1083
-1083
-1083
-1083
-1084
-1084
-1085
-1086
-1086
-1086
-1086
-1087
-1087
-1087
-1086
-1085
-1084
-1084
-1084
-1085
-1086
-1086
-1087
-1088
-1088
-1087
-1087
-1086
-1087
-1088
-1088
-1087
-1088
-1088
-1088
-1088
-1087
-1087
-1088
-1089
-1089
-1090
-1090
-1089
-1088
-1088
-1088
-1088
-1088
-1089
-1090
-1090
-1090
-1090
-1089
-1088
-1087
-1087
-1088
-1090
-1090
-1091
-1091
-1090
-1089
-1088
-1088
-1088
-1089
-1090
-1091
-1091
-1091
-1091
-1089
-1089
-1089
-1089
-1089
-1089
-1089
-1088
-1088
-1088
-1087
-1086
-1083
-1081
-1081
-1081
-1081
-1082
-1081
-1080
-1080
-1079
-1078
-1076
-1074
-1072
-1069
-1068
-1067
-1068
-1071
-1073
-1075
-1076
-1077
-1079
-1080
-1082
-1083
-1084
-1085
-1087
-1089
-1091
-1093
-1094
-1095
-1097
-1097
-1097
-1097
-1098
-1098
-1098
-1099
-1099
-1100
-1100
-1100
-1100
-1099
-1099
-1099
-1099
-1100
-1101
-1101
-1102
-1102
-1102
-1102
-1103
-1104
-1108
-1114
-1121
-1129
-1136
-1142
-1146
-1145
-1136
-1122
-1102
-1077
-1038
-988
-930
-868
-807
-752
-698
-644
-601
-561
-527
-504
-488
-495
-525
-572
-629
-706
-789
-878
-963
-1040
-1097
-1117
-1124
-1130
-1131
-1128
-1122
-1115
-1109
-1102
-1094
-1088
-1082
-1078
-1076
-1075
-1076
-1077
-1078
-1079
-1078
-1077
-1076
-1076
-1076
-1076
-1076
-1076
-1076
-1075
-1074
-1072
-1072
-1071
-1070
-1070
-1070
-1070
-1069
-1069
-1068
-1067
-1065
-1064
-1062
-1062
-1061
-1061
-1060
-1060
-1059
-1058
-1057
-1055
-1054
-1053
-1052
-1051
-1049
-1049
-1047
-1046
-1044
-1043
-1041
-1040
-1039
-1038
-1037
-1035
-1034
-1032
-1030
-1028
-1026
-1024
-1022
-1021
-1019
-1017
-1015
-1012
-1009
-1006
-1004
-1001
-1000
-998
-996
-994
-992
-989
-985
-981
-978
-976
-974
-972
-970
-968
-966
-964
-961
-958
-956
-956
-955
-954
-953
-953
-951
-949
-948
-947
-946
-946
-947
-948
-949
-951
-952
-954
-956
-959
-962
-967
-973
-978
-985
-990
-995
-1000
-1004
-1009
-1013
-1019
-1024
-1029
-1034
-1038
-1043
-1046
-1050
-1053
-1056
-1059
-1062
-1065
-1067
-1069
-1071
-1072
-1073
-1075
-1075
-1077
-1078
-1080
-1082
-1083
-1083
-1083
-1082
-1082
-1082
-1082
-1082
-1083
-1083
-1083
-1083
-1083
-1083
-1083
-1083
-1083
-1084
-1084
-1084
-1084
-1084
-1083
-1082
-1081
-1081
-1081
-1082
-1081
-1082
-1081
-1081
-1081
-1081
-1080
-1080
-1080
-1080
-1080
-1080
-1080
-1080
-1080
-1079
-1079
-1080
-1082
-1082
-1082
-1083
-1083
-1083
-1081
-1081
-1082
-1082
-1082
-1083
-1083
-1083
-1083
-1083
-1083
-1083
-1084
-1085
-1085
-1086
-1086
-1087
-1087
-1088
-1088
-1088
-1088
-1088
-1088
-1089
-1090
-1091
-1091
-1091
-1091
-1090
-1090
-1090
-1091
-1091
-1092
-1092
-1093
-1093
-1093
-1092
-1092
-1091
-1091
-1092
-1093
-1093
-1093
-1093
-1093
-1094
-1094
-1094
-1095
-1095
-1095
-1095
-1095
-1095
-1094
-1094
-1094
-1095
-1095
-1095
-1095
-1096
-1096
-1095
-1094
-1094
-1094
-1094
-1095
-1096
-1097
-1097
-1097
-1097
-1097
-1096
-1096
-1096
-1097
-1097
-1097
-1097
-1097
-1097
-1096
-1096
-1096
-1096
-1098
-1098
-1098
-1098
-1098
-1098
-1097
-1096
-1096
-1096
-1097
-1097
-1097
-1096
-1097
-1097
-1098
-1098
-1098
-1098
-1098
-1098
-1098
-1098
-1098
-1098
-1098
-1098
-1097
-1097
-1097
-1097
-1098
-1098
-1098
-1098
-1097
-1097
-1097
-1098
-1099
-1099
-1099
-1099
-1098
-1097
-1097
-1097
-1096
-1097
-1098
-1098
-1098
-1098
-1098
-1097
-1097
-1097
-1097
-1098
-1097
-1096
-1096
-1096
-1094
-1094
-1093
-1092
-1091
-1092
-1091
-1089
-1087
-1087
-1086
-1087
-1087
-1086
-1087
-1087
-1086
-1084
-1081
-1078
-1076
-1074
-1073
-1076
-1078
-1081
-1083
-1084
-1086
-1087
-1087
-1088
-1089
-1091
-1092
-1094
-1097
-1099
-1100
-1101
-1101
-1101
-1101
-1101
-1102
-1103
-1104
-1105
-1106
-1106
-1105
-1104
-1104
-1104
-1104
-1104
-1105
-1106
-1106
-1106
-1106
-1105
-1104
-1104
-1104
-1107
-1110
-1115
-1122
-1131
-1139
-1146
-1151
-1154
-1150
-1138
-1120
-1097
-1064
-1017
-960
-896
-832
-773
-715
-658
-604
-562
-523
-492
-471
-472
-502
-548
-604
-677
-761
-849
-936
-1016
-1085
-1120
-1130
-1135
-1133
-1127
-1121
-1115
-1110
-1101
-1094
-1088
-1084
-1080
-1078
-1077
-1077
-1077
-1077
-1078
-1077
-1077
-1077
-1077
-1077
-1077
-1077
-1077
-1077
-1077
-1077
-1075
-1073
-1072
-1072
-1072
-1071
-1071
-1070
-1070
-1069
-1068
-1066
-1066
-1065
-1064
-1064
-1063
-1062
-1061
-1059
-1057
-1056
-1054
-1054
-1054
-1053
-1052
-1051
-1049
-1048
-1047
-1046
-1043
-1042
-1041
-1040
-1039
-1038
-1036
-1033
-1031
-1030
-1029
-1027
-1026
-1024
-1022
-1020
-1018
-1016
-1013
-1011
-1009
-1007
-1004
-1001
-998
-996
-992
-988
-985
-981
-979
-976
-974
-972
-971
-968
-965
-962
-959
-957
-955
-953
-952
-950
-948
-947
-945
-943
-941
-941
-940
-940
-940
-939
-939
-939
-940
-941
-943
-945
-949
-953
-957
-961
-966
-971
-976
-980
-985
-990
-995
-1002
-1008
-1014
-1019
-1024
-1029
-1034
-1037
-1041
-1046
-1048
-1051
-1054
-1057
-1060
-1062
-1064
-1065
-1066
-1069
-1071
-1074
-1075
-1076
-1077
-1077
-1076
-1076
-1076
-1076
-1077
-1078
-1078
-1079
-1079
-1079
-1078
-1078
-1078
-1079
-1079
-1079
-1080
-1079
-1079
-1079
-1078
-1078
-1078
-1077
-1077
-1077
-1078
-1077
-1077
-1076
-1076
-1075
-1075
-1075
-1075
-1076
-1076
-1076
-1076
-1076
-1075
-1074
-1073
-1074
-1075
-1075
-1075
-1076
-1076
-1075
-1075
-1074
-1075
-1076
-1076
-1076
-1076
-1077
-1077
-1077
-1076
-1075
-1076
-1077
-1078
-1079
-1080
-1080
-1081
-1081
-1080
-1079
-1079
-1079
-1080
-1081
-1082
-1083
-1083
-1083
-1082
-1082
-1082
-1083
-1084
-1084
-1084
-1084
-1084
-1083
-1083
-1084
-1085
-1085
-1085
-1085
-1086
-1086
-1085
-1085
-1085
-1084
-1084
-1084
-1085
-1085
-1086
-1086
-1086
-1085
-1085
-1085
-1085
-1086
-1088
-1089
-1089
-1088
-1087
-1086
-1086
-1087
-1087
-1087
-1088
-1088
-1088
-1088
-1087
-1087
-1086
-1086
-1085
-1086
-1087
-1088
-1089
-1090
-1090
-1089
-1088
-1087
-1087
-1087
-1088
-1088
-1088
-1089
-1089
-1089
-1088
-1088
-1088
-1089
-1089
-1090
-1089
-1090
-1089
-1089
-1088
-1088
-1088
-1088
-1089
-1090
-1090
-1090
-1089
-1088
-1088
-1087
-1088
-1089
-1090
-1091
-1090
-1089
-1089
-1089
-1089
-1090
-1090
-1090
-1091
-1091
-1090
-1091
-1090
-1089
-1090
-1090
-1090
-1091
-1092
-1092
-1091
-1090
-1089
-1089
-1088
-1088
-1088
-1089
-1088
-1088
-1088
-1087
-1085
-1082
-1080
-1080
-1081
-1082
-1082
-1082
-1082
-1082
-1081
-1079
-1077
-1074
-1071
-1069
-1068
-1067
-1070
-1074
-1076
-1076
-1079
-1081
-1082
-1083
-1083
-1084
-1086
-1087
-1087
-1088
-1090
-1091
-1093
-1095
-1096
-1096
-1097
-1097
-1096
-1096
-1096
-1096
-1097
-1098
-1099
-1100
-1100
-1100
-1098
-1098
-1098
-1098
-1098
-1098
-1099
-1100
-1100
-1100
-1101
-1103
-1106
-1112
-1120
-1128
-1135
-1141
-1145
-1141
-1129
-1110
-1089
-1057
-1014
-961
-902
-842
-785
-731
-675
-627
-588
-550
-522
-502
-493
-512
-550
-600
-664
-743
-827
-916
-996
-1067
-1105
-1118
-1125
-1134
-1134
-1129
-1122
-1115
-1109
-1101
-1093
-1087
-1082
-1078
-1075
-1074
-1074
-1074
-1075
-1075
-1075
-1075
-1075
-1075
-1074
-1073
-1072
-1071
-1071
-1071
-1071
-1072
-1071
-1069
-1067
-1066
-1066
-1067
-1066
-1065
-1065
-1064
-1063
-1062
-1060
-1060
-1059
-1059
-1058
-1057
-1056
-1055
-1055
-1054
-1052
-1050
-1049
-1048
-1047
-1046
-1045
-1044
-1042
-1041
-1039
-1038
-1037
-1036
-1035
-1033
-1032
-1031
-1029
-1027
-1024
-1022
-1020
-1019
-1017
-1015
-1013
-1012
-1010
-1007
-1005
-1002
-999
-996
-994
-992
-989
-986
-984
-980
-979
-975
-973
-970
-968
-966
-963
-961
-959
-957
-955
-954
-952
-952
-951
-951
-949
-947
-946
-946
-944
-944
-945
-946
-947
-950
-953
-955
-958
-961
-964
-967
-972
-977
-982
-987
-993
-998
-1003
-1009
-1015
-1019
-1024
-1030
-1035
-1039
-1043
-1047
-1051
-1053
-1055
-1058
-1061
-1064
-1066
-1069
-1071
-1073
-1074
-1074
-1075
-1075
-1075
-1076
-1078
-1081
-1082
-1081
-1082
-1082
-1082
-1082
-1082
-1083
-1083
-1083
-1083
-1084
-1084
-1083
-1082
-1082
-1082
-1083
-1083
-1083
-1083
-1083
-1082
-1082
-1081
-1080
-1079
-1080
-1080
-1081
-1081
-1081
-1081
-1080
-1079
-1079
-1079
-1080
-1080
-1080
-1080
-1081
-1080
-1079
-1078
-1078
-1078
-1079
-1080
-1080
-1081
-1080
-1080
-1080
-1079
-1080
-1081
-1082
-1083
-1083
-1083
-1083
-1083
-1083
-1083
-1082
-1083
-1084
-1085
-1086
-1087
-1087
-1087
-1087
-1086
-1086
-1086
-1087
-1088
-1089
-1089
-1089
-1089
-1090
-1089
-1090
-1091
-1092
-1092
-1092
-1092
-1092
-1091
-1091
-1090
-1091
-1092
-1092
-1092
-1093
-1093
-1093
-1093
-1093
-1092
-1093
-1094
-1094
-1094
-1094
-1094
-1093
-1093
-1094
-1094
-1094
-1094
-1095
-1095
-1095
-1095
-1095
-1095
-1094
-1094
-1094
-1095
-1096
-1097
-1098
-1097
-1097
-1097
-1096
-1095
-1095
-1095
-1096
-1096
-1097
-1097
-1097
-1097
-1095
-1096
-1096
-1097
-1098
-1098
-1098
-1097
-1097
-1097
-1097
-1096
-1097
-1097
-1097
-1098
-1097
-1098
-1098
-1097
-1097
-1097
-1097
-1098
-1098
-1098
-1098
-1098
-1098
-1097
-1096
-1096
-1097
-1097
-1097
-1098
-1098
-1098
-1098
-1097
-1096
-1096
-1096
-1098
-1099
-1099
-1100
-1099
-1099
-1098
-1097
-1097
-1097
-1097
-1097
-1098
-1099
-1099
-1098
-1097
-1097
-1097
-1098
-1099
-1099
-1099
-1099
-1099
-1098
-1098
-1098
-1098
-1097
-1097
-1097
-1096
-1095
-1094
-1094
-1095
-1094
-1094
-1094
-1093
-1091
-1088
-1087
-1087
-1087
-1086
-1086
-1087
-1088
-1087
-1086
-1084
-1081
-1077
-1076
-1074
-1075
-1077
-1079
-1082
-1085
-1088
-1091
-1091
-1090
-1089
-1090
-1092
-1094
-1095
-1098
-1100
-1100
-1100
-1100
-1100
-1100
-1100
-1101
-1102
-1103
-1104
-1104
-1104
-1103
-1103
-1103
-1103
-1103
-1104
-1105
-1105
-1104
-1104
-1104
-1103
-1104
-1104
-1106
-1109
-1111
-1116
-1123
-1131
-1138
-1143
-1149
-1151
-1144
-1131
-1111
-1087
-1050
-1001
-943
-881
-819
-763
-707
-652
-604
-564
-528
-502
-484
-490
-523
-570
-628
-702
-785
-873
-958
-1034
-1096
-1121
-1129
-1135
-1137
-1132
-1125
-1119
-1113
-1104
-1095
-1089
-1084
-1081
-1079
-1079
-1079
-1079
-1079
-1079
-1078
-1077
-1077
-1076
-1076
-1076
-1076
-1075
-1076
-1075
-1074
-1073
-1072
-1071
-1071
-1072
-1072
-1071
-1070
-1069
-1067
-1066
-1064
-1064
-1063
-1063
-1063
-1062
-1061
-1060
-1058
-1056
-1055
-1055
-1054
-1054
-1053
-1052
-1050
-1049
-1047
-1045
-1043
-1042
-1041
-1041
-1040
-1039
-1036
-1033
-1031
-1029
-1027
-1026
-1026
-1024
-1022
-1020
-1018
-1016
-1013
-1010
-1008
-1006
-1004
-1002
-1000
-996
-993
-990
-987
-984
-981
-979
-977
-974
-972
-970
-966
-963
-960
-958
-956
-954
-952
-951
-950
-949
-946
-944
-942
-940
-940
-940
-941
-941
-940
-940
-941
-942
-943
-944
-947
-951
-955
-959
-963
-967
-972
-977
-981
-986
-993
-998
-1004
-1010
-1015
-1020
-1025
-1029
-1034
-1038
-1042
-1046
-1050
-1054
-1057
-1059
-1062
-1064
-1065
-1066
-1069
-1071
-1073
-1075
-1076
-1076
-1076
-1077
-1077
-1077
-1078
-1079
-1080
-1081
-1081
-1081
-1081
-1081
-1081
-1082
-1082
-1082
-1082
-1082
-1083
-1083
-1082
-1081
-1080
-1080
-1080
-1080
-1080
-1080
-1080
-1080
-1080
-1079
-1078
-1078
-1078
-1077
-1078
-1077
-1077
-1077
-1076
-1077
-1077
-1077
-1077
-1078
-1078
-1078
-1077
-1076
-1076
-1075
-1076
-1076
-1076
-1079
-1079
-1080
-1080
-1080
-1079
-1078
-1078
-1078
-1079
-1079
-1080
-1081
-1082
-1082
-1082
-1082
-1082
-1083
-1083
-1084
-1085
-1085
-1086
-1086
-1086
-1085
-1086
-1085
-1086
-1087
-1087
-1088
-1089
-1089
-1089
-1088
-1088
-1088
-1088
-1088
-1088
-1089
-1089
-1090
-1091
-1091
-1090
-1090
-1092
-1093
-1093
-1093
-1093
-1093
-1093
-1092
-1091
-1092
-1093
-1094
-1094
-1095
-1094
-1095
-1095
-1094
-1094
-1093
-1094
-1094
-1094
-1095
-1095
-1095
-1095
-1095
-1095
-1095
-1095
-1096
-1096
-1097
-1097
-1097
-1096
-1095
-1095
-1095
-1096
-1096
-1097
-1097
-1097
-1097
-1096
-1095
-1096
-1096
-1096
-1096
-1096
-1097
-1097
-1096
-1096
-1096
-1096
-1096
-1095
-1096
-1096
-1097
-1097
-1097
-1097
-1097
-1097
-1096
-1097
-1098
-1098
-1098
-1098
-1097
-1096
-1096
-1096
-1096
-1096
-1096
-1096
-1096
-1097
-1097
-1097
-1097
-1097
-1098
-1098
-1099
-1099
-1099
-1099
-1099
-1097
-1096
-1096
-1096
-1096
-1095
-1095
-1095
-1095
-1094
-1094
-1093
-1092
-1090
-1089
-1088
-1089
-1089
-1088
-1087
-1087
-1087
-1087
-1086
-1083
-1081
-1079
-1077
-1076
-1077
-1079
-1081
-1083
-1085
-1088
-1090
-1090
-1091
-1093
-1093
-1093
-1094
-1095
-1097
-1099
-1100
-1102
-1104
-1104
-1105
-1105
-1105
-1105
-1105
-1106
-1107
-1107
-1108
-1108
-1108
-1108
-1107
-1107
-1108
-1108
-1108
-1108
-1108
-1108
-1108
-1108
-1109
-1111
-1114
-1118
-1124
-1132
-1140
-1146
-1151
-1154
-1149
-1137
-1119
-1098
-1067
-1023
-968
-908
-845
-787
-731
-676
-627
-586
-547
-517
-496
-490
-512
-554
-607
-674
-755
-840
-929
-1010
-1080
-1117
-1127
-1133
-1138
-1134
-1130
-1124
-1117
-1112
-1103
-1096
-1089
-1084
-1080
-1079
-1080
-1081
-1082
-1083
-1083
-1083
-1082
-1081
-1081
-1081
-1081
-1081
-1081
-1081
-1081
-1079
-1078
-1077
-1076
-1076
-1076
-1077
-1076
-1075
-1075
-1073
-1072
-1070
-1069
-1069
-1069
-1070
-1069
-1068
-1067
-1065
-1063
-1062
-1061
-1060
-1059
-1058
-1058
-1058
-1057
-1055
-1053
-1051
-1049
-1048
-1046
-1045
-1045
-1044
-1042
-1039
-1036
-1035
-1033
-1032
-1030
-1027
-1025
-1024
-1021
-1019
-1017
-1015
-1013
-1010
-1008
-1005
-1003
-1000
-997
-994
-990
-986
-983
-980
-978
-975
-973
-970
-968
-966
-962
-961
-959
-958
-955
-953
-951
-950
-950
-948
-947
-946
-946
-946
-945
-946
-947
-949
-950
-952
-955
-958
-962
-966
-971
-977
-981
-986
-992
-997
-1002
-1008
-1013
-1019
-1026
-1032
-1037
-1040
-1045
-1049
-1054
-1057
-1061
-1065
-1067
-1071
-1074
-1076
-1077
-1079
-1080
-1082
-1083
-1085
-1086
-1087
-1088
-1088
-1089
-1089
-1090
-1091
-1091
-1092
-1092
-1093
-1094
-1095
-1094
-1093
-1093
-1093
-1093
-1094
-1094
-1094
-1094
-1094
-1093
-1093
-1092
-1092
-1092
-1092
-1092
-1093
-1092
-1092
-1091
-1091
-1090
-1089
-1089
-1089
-1089
-1089
-1090
-1089
-1088
-1087
-1087
-1087
-1088
-1089
-1090
-1090
-1090
-1090
-1090
-1089
-1089
-1089
-1089
-1089
-1089
-1089
-1090
-1090
-1090
-1090
-1089
-1090
-1091
-1091
-1092
-1092
-1092
-1093
-1092
-1092
-1092
-1092
-1093
-1094
-1095
-1095
-1095
-1095
-1095
-1094
-1093
-1093
-1094
-1096
-1096
-1097
-1097
-1098
-1098
-1098
-1097
-1097
-1097
-1098
-1099
-1099
-1100
-1100
-1099
-1099
-1099
-1099
-1099
-1100
-1100
-1101
-1101
-1101
-1101
-1101
-1100
-1100
-1102
-1102
-1104
-1104
-1105
-1104
-1104
-1105
-1104
-1104
-1104
-1105
-1105
-1106
-1106
-1106
-1106
-1105
-1104
-1104
-1105
-1106
-1106
-1107
-1107
-1106
-1106
-1106
-1106
-1106
-1107
-1107
-1108
-1108
-1108
-1107
-1106
-1107
-1106
-1107
-1107
-1107
-1107
-1108
-1108
-1107
-1107
-1106
-1106
-1106
-1106
-1107
-1107
-1107
-1107
-1107
-1105
-1105
-1105
-1105
-1107
-1107
-1108
-1108
-1108
-1107
-1106
-1106
-1105
-1105
-1105
-1106
-1106
-1107
-1107
-1106
-1106
-1106
-1105
-1105
-1106
-1106
-1107
-1107
-1107
-1106
-1105
-1104
-1104
-1104
-1105
-1105
-1106
-1106
-1107
-1107
-1106
-1104
-1104
-1105
-1106
-1107
-1107
-1107
-1107
-1107
-1106
-1105
-1104
-1104
-1104
-1104
-1103
-1103
-1103
-1103
-1102
-1099
-1097
-1095
-1095
-1096
-1098
-1098
-1097
-1097
-1097
-1096
-1094
-1091
-1088
-1087
-1086
-1085
-1087
-1089
-1091
-1092
-1094
-1096
-1098
-1099
-1101
-1101
-1102
-1102
-1103
-1104
-1106
-1108
-1110
-1112
-1113
-1113
-1114
-1113
-1113
-1114
-1114
-1115
-1115
-1115
-1115
-1115
-1115
-1115
-1114
-1115
-1116
-1116
-1116
-1116
-1116
-1116
-1116
-1116
-1116
-1118
-1121
-1126
-1133
-1142
-1151
-1158
-1163
-1164
-1158
-1145
-1126
-1105
-1072
-1025
-967
-904
-841
-782
-723
-663
-609
-566
-528
-498
-478
-481
-514
-561
-617
-688
-773
-860
-947
-1027
-1095
-1132
-1142
-1145
-1140
-1132
-1125
-1118
-1112
-1104
-1099
-1095
-1090
-1087
-1085
-1085
-1086
-1087
-1088
-1088
-1088
-1088
-1088
-1087
-1086
-1086
-1086
-1086
-1086
-1086
-1086
-1084
-1084
-1082
-1081
-1080
-1080
-1080
-1079
-1079
-1078
-1078
-1077
-1075
-1074
-1073
-1073
-1073
-1073
-1072
-1071
-1070
-1068
-1067
-1065
-1063
-1063
-1061
-1060
-1060
-1059
-1057
-1056
-1055
-1053
-1052
-1051
-1049
-1047
-1046
-1044
-1041
-1040
-1038
-1035
-1034
-1032
-1030
-1028
-1025
-1023
-1020
-1017
-1014
-1011
-1008
-1006
-1004
-1001
-998
-995
-992
-988
-984
-980
-977
-975
-973
-970
-968
-965
-962
-959
-956
-953
-951
-949
-948
-947
-944
-943
-941
-940
-938
-938
-937
-938
-939
-940
-941
-942
-944
-946
-949
-953
-958
-964
-970
-975
-980
-986
-991
-997
-1002
-1008
-1013
-1019
-1025
-1031
-1037
-1043
-1047
-1050
-1054
-1057
-1061
-1065
-1068
-1071
-1073
-1075
-1077
-1078
-1079
-1081
-1083
-1084
-1085
-1087
-1088
-1088
-1089
-1090
-1090
-1090
-1091
-1091
-1092
-1092
-1092
-1092
-1092
-1092
-1092
-1092
-1092
-1091
-1091
-1092
-1092
-1092
-1091
-1091
-1091
-1090
-1090
-1091
-1090
-1090
-1090
-1090
-1089
-1088
-1087
-1087
-1087
-1088
-1088
-1088
-1087
-1086
-1085
-1085
-1084
-1084
-1084
-1084
-1084
-1085
-1086
-1086
-1086
-1086
-1086
-1086
-1086
-1086
-1086
-1086
-1085
-1085
-1085
-1085
-1085
-1086
-1086
-1087
-1088
-1088
-1088
-1089
-1088
-1088
-1087
-1086
-1087
-1089
-1090
-1090
-1090
-1090
-1090
-1089
-1089
-1090
-1090
-1091
-1092
-1092
-1092
-1092
-1092
-1093
-1093
-1093
-1094
-1095
-1095
-1096
-1096
-1095
-1095
-1094
-1094
-1094
-1096
-1097
-1097
-1097
-1097
-1097
-1097
-1097
-1097
-1098
-1099
-1099
-1099
-1099
-1098
-1099
-1099
-1099
-1098
-1098
-1098
-1099
-1100
-1100
-1100
-1100
-1099
-1099
-1098
-1099
-1100
-1100
-1101
-1101
-1102
-1101
-1100
-1100
-1099
-1100
-1100
-1100
-1100
-1101
-1100
-1100
-1100
-1100
-1100
-1100
-1101
-1101
-1101
-1101
-1101
-1100
-1100
-1099
-1099
-1099
-1099
-1100
-1101
-1101
-1101
-1101
-1101
-1100
-1099
-1099
-1100
-1100
-1101
-1101
-1101
-1101
-1100
-1099
-1098
-1098
-1098
-1099
-1100
-1100
-1100
-1100
-1100
-1099
-1099
-1099
-1099
-1099
-1099
-1100
-1099
-1099
-1098
-1098
-1098
-1100
-1099
-1099
-1100
-1099
-1099
-1099
-1099
-1098
-1099
-1099
-1099
-1100
-1101
-1101
-1100
-1099
-1099
-1099
-1099
-1099
-1099
-1100
-1100
-1099
-1098
-1097
-1096
-1095
-1095
-1096
-1096
-1094
-1092
-1091
-1091
-1091
-1090
-1090
-1090
-1090
-1091
-1090
-1087
-1084
-1080
-1078
-1076
-1077
-1079
-1082
-1084
-1087
-1089
-1091
-1093
-1094
-1093
-1094
-1095
-1096
-1098
-1101
-1103
-1104
-1105
-1105
-1105
-1105
-1106
-1107
-1107
-1107
-1108
-1108
-1108
-1108
-1108
-1108
-1108
-1109
-1110
-1110
-1110
-1110
-1109
-1109
-1109
-1109
-1109
-1110
-1111
-1114
-1117
-1122
-1128
-1135
-1142
-1149
-1154
-1155
-1148
-1135
-1115
-1091
-1054
-1004
-946
-884
-823
-768
-714
-659
-611
-571
-534
-508
-491
-498
-532
-580
-637
-711
-794
-882
-968
-1044
-1104
-1128
-1135
-1142
-1144
-1138
-1131
-1124
-1117
-1108
-1100
-1094
-1090
-1087
-1085
-1083
-1083
-1084
-1084
-1084
-1084
-1085
-1086
-1086
-1084
-1084
-1083
-1083
-1083
-1082
-1081
-1081
-1081
-1081
-1080
-1080
-1080
-1079
-1078
-1077
-1076
-1075
-1075
-1074
-1073
-1072
-1071
-1070
-1069
-1069
-1067
-1066
-1065
-1065
-1064
-1062
-1062
-1060
-1059
-1057
-1056
-1055
-1054
-1054
-1053
-1051
-1049
-1047
-1045
-1042
-1041
-1039
-1038
-1037
-1035
-1033
-1031
-1029
-1027
-1024
-1022
-1020
-1018
-1015
-1014
-1011
-1007
-1004
-1001
-998
-994
-991
-989
-986
-983
-981
-978
-975
-971
-967
-964
-962
-961
-960
-959
-958
-955
-953
-950
-948
-946
-945
-945
-946
-945
-944
-944
-945
-946
-947
-948
-951
-954
-959
-963
-968
-973
-978
-982
-987
-992
-998
-1005
-1011
-1016
-1023
-1029
-1034
-1037
-1042
-1047
-1052
-1056
-1060
-1063
-1067
-1070
-1072
-1075
-1077
-1079
-1081
-1084
-1086
-1086
-1088
-1090
-1091
-1092
-1091
-1092
-1093
-1093
-1094
-1094
-1095
-1096
-1096
-1095
-1095
-1096
-1096
-1097
-1097
-1097
-1097
-1096
-1096
-1096
-1096
-1095
-1095
-1096
-1096
-1095
-1095
-1095
-1094
-1093
-1093
-1093
-1093
-1093
-1093
-1093
-1093
-1093
-1092
-1092
-1090
-1091
-1091
-1091
-1092
-1092
-1092
-1091
-1091
-1090
-1090
-1091
-1091
-1092
-1092
-1092
-1092
-1092
-1091
-1090
-1090
-1090
-1091
-1092
-1093
-1094
-1094
-1094
-1093
-1093
-1093
-1094
-1095
-1096
-1096
-1097
-1096
-1097
-1097
-1096
-1096
-1097
-1098
-1099
-1100
-1100
-1100
-1100
-1100
-1100
-1100
-1100
-1101
-1102
-1102
-1103
-1103
-1103
-1103
-1103
-1103
-1103
-1104
-1105
-1106
-1106
-1106
-1105
-1105
-1104
-1105
-1105
-1106
-1107
-1108
-1107
-1107
-1107
-1106
-1106
-1106
-1106
-1107
-1107
-1108
-1109
-1109
-1108
-1108
-1107
-1108
-1109
-1109
-1110
-1110
-1110
-1110
-1109
-1109
-1109
-1109
-1109
-1109
-1109
-1110
-1110
-1110
-1110
-1109
-1108
-1109
-1109
-1110
-1110
-1110
-1110
-1110
-1110
-1108
-1108
-1108
-1109
-1110
-1110
-1111
-1111
-1111
-1110
-1109
-1108
-1108
-1109
-1110
-1109
-1110
-1110
-1110
-1109
-1109
-1108
-1108
-1109
-1110
-1110
-1110
-1110
-1110
-1109
-1108
-1108
-1109
-1109
-1109
-1109
-1109
-1109
-1109
-1109
-1108
-1108
-1108
-1109
-1110
-1111
-1112
-1112
-1111
-1111
-1110
-1109
-1110
-1111
-1111
-1111
-1112
-1113
-1112
-1112
-1111
-1111
-1111
-1112
-1112
-1113
-1113
-1112
-1111
-1110
-1110
-1110
-1111
-1111
-1110
-1109
-1109
-1108
-1108
-1107
-1105
-1102
-1101
-1101
-1101
-1101
-1102
-1101
-1101
-1101
-1100
-1097
-1094
-1091
-1088
-1087
-1088
-1089
-1091
-1093
-1095
-1097
-1098
-1100
-1102
-1103
-1105
-1105
-1105
-1106
-1107
-1109
-1110
-1112
-1114
-1115
-1115
-1115
-1116
-1115
-1115
-1116
-1117
-1118
-1118
-1118
-1119
-1118
-1116
-1116
-1116
-1117
-1117
-1117
-1117
-1118
-1119
-1119
-1118
-1117
-1119
-1122
-1126
-1132
-1140
-1149
-1157
-1162
-1167
-1164
-1154
-1137
-1117
-1090
-1049
-995
-934
-871
-810
-751
-693
-638
-591
-551
-519
-497
-489
-510
-553
-604
-670
-750
-838
-926
-1008
-1081
-1129
-1144
-1150
-1151
-1145
-1138
-1132
-1126
-1118
-1110
-1104
-1099
-1095
-1092
-1090
-1091
-1092
-1093
-1094
-1094
-1093
-1093
-1093
-1092
-1091
-1090
-1091
-1091
-1091
-1091
-1090
-1089
-1088
-1086
-1085
-1085
-1085
-1086
-1086
-1085
-1083
-1083
-1082
-1080
-1078
-1077
-1077
-1077
-1076
-1075
-1074
-1073
-1071
-1069
-1068
-1067
-1066
-1065
-1065
-1064
-1063
-1061
-1059
-1057
-1054
-1053
-1052
-1050
-1049
-1047
-1046
-1044
-1042
-1040
-1038
-1036
-1034
-1032
-1029
-1027
-1024
-1021
-1018
-1016
-1014
-1011
-1008
-1006
-1004
-1000
-997
-993
-989
-986
-983
-980
-977
-975
-972
-970
-968
-965
-962
-958
-957
-955
-953
-952
-951
-949
-947
-947
-945
-944
-943
-943
-943
-944
-946
-948
-950
-952
-955
-958
-962
-967
-973
-979
-985
-990
-996
-1001
-1006
-1012
-1017
-1023
-1029
-1036
-1042
-1047
-1052
-1056
-1060
-1063
-1065
-1069
-1073
-1076
-1079
-1081
-1083
-1085
-1086
-1087
-1089
-1091
-1092
-1093
-1095
-1096
-1096
-1096
-1095
-1096
-1096
-1097
-1098
-1098
-1098
-1099
-1099
-1098
-1098
-1097
-1097
-1098
-1098
-1098
-1098
-1098
-1097
-1097
-1096
-1096
-1096
-1096
-1097
-1096
-1095
-1095
-1094
-1094
-1093
-1093
-1093
-1093
-1092
-1092
-1092
-1092
-1092
-1091
-1090
-1089
-1089
-1091
-1092
-1092
-1093
-1093
-1092
-1091
-1090
-1090
-1090
-1090
-1091
-1091
-1092
-1093
-1093
-1093
-1092
-1093
-1094
-1094
-1095
-1096
-1096
-1096
-1096
-1096
-1095
-1096
-1096
-1097
-1098
-1098
-1099
-1099
-1100
-1100
-1100
-1100
-1101
-1102
-1103
-1103
-1103
-1103
-1103
-1102
-1102
-1102
-1103
-1103
-1104
-1104
-1105
-1105
-1105
-1105
-1104
-1104
-1104
-1105
-1106
-1106
-1107
-1107
-1107
-1107
-1106
-1105
-1105
-1106
-1106
-1107
-1107
-1107
-1106
-1106
-1106
-1106
-1106
-1107
-1107
-1107
-1107
-1106
-1106
-1106
-1106
-1106
-1106
-1107
-1107
-1108
-1108
-1108
-1107
-1106
-1106
-1106
-1106
-1106
-1106
-1107
-1107
-1107
-1107
-1107
-1106
-1106
-1106
-1106
-1106
-1107
-1106
-1106
-1106
-1106
-1105
-1106
-1106
-1106
-1107
-1107
-1107
-1107
-1107
-1107
-1107
-1107
-1107
-1108
-1108
-1109
-1109
-1108
-1107
-1107
-1107
-1107
-1108
-1109
-1109
-1110
-1109
-1109
-1108
-1107
-1108
-1108
-1109
-1109
-1109
-1109
-1109
-1109
-1108
-1108
-1109
-1109
-1109
-1109
-1110
-1111
-1111
-1111
-1110
-1109
-1109
-1108
-1109
-1109
-1110
-1110
-1111
-1110
-1109
-1109
-1108
-1107
-1108
-1108
-1108
-1107
-1106
-1105
-1102
-1100
-1099
-1099
-1100
-1101
-1100
-1100
-1099
-1099
-1097
-1093
-1090
-1088
-1087
-1085
-1087
-1089
-1091
-1093
-1094
-1095
-1097
-1099
-1100
-1101
-1102
-1103
-1104
-1104
-1106
-1108
-1109
-1110
-1111
-1112
-1113
-1114
-1114
-1114
-1114
-1114
-1115
-1115
-1116
-1117
-1117
-1117
-1117
-1116
-1116
-1116
-1116
-1116
-1118
-1118
-1118
-1118
-1118
-1118
-1120
-1123
-1127
-1134
-1141
-1150
-1156
-1162
-1164
-1157
-1144
-1125
-1102
-1069
-1024
-967
-908
-848
-792
-738
-683
-636
-597
-560
-534
-516
-514
-541
-586
-640
-708
-788
-873
-961
-1039
-1105
-1135
-1144
-1151
-1156
-1153
-1146
-1139
-1133
-1127
-1118
-1111
-1105
-1100
-1096
-1093
-1093
-1093
-1094
-1096
-1096
-1096
-1096
-1095
-1095
-1093
-1092
-1091
-1092
-1091
-1091
-1091
-1090
-1089
-1088
-1087
-1086
-1086
-1086
-1086
-1085
-1083
-1083
-1082
-1081
-1079
-1078
-1077
-1076
-1076
-1076
-1075
-1074
-1072
-1070
-1069
-1068
-1067
-1066
-1066
-1064
-1063
-1062
-1061
-1059
-1058
-1056
-1055
-1054
-1052
-1050
-1048
-1047
-1046
-1043
-1041
-1039
-1037
-1036
-1034
-1032
-1030
-1027
-1024
-1021
-1018
-1015
-1013
-1011
-1009
-1006
-1003
-999
-996
-992
-989
-987
-984
-982
-980
-978
-976
-974
-971
-968
-965
-964
-962
-961
-960
-959
-958
-957
-955
-954
-953
-953
-955
-956
-958
-961
-963
-965
-968
-971
-975
-980
-985
-991
-997
-1002
-1009
-1014
-1020
-1025
-1031
-1036
-1041
-1047
-1052
-1057
-1061
-1066
-1069
-1072
-1076
-1078
-1081
-1085
-1088
-1090
-1092
-1093
-1094
-1095
-1096
-1097
-1099
-1100
-1102
-1102
-1102
-1102
-1103
-1103
-1103
-1103
-1104
-1104
-1105
-1105
-1105
-1105
-1104
-1104
-1104
-1104
-1104
-1105
-1106
-1106
-1106
-1105
-1104
-1103
-1102
-1103
-1103
-1104
-1104
-1104
-1104
-1103
-1102
-1101
-1101
-1101
-1102
-1102
-1103
-1103
-1103
-1103
-1102
-1101
-1101
-1102
-1102
-1102
-1103
-1103
-1102
-1103
-1102
-1102
-1101
-1102
-1102
-1104
-1105
-1105
-1106
-1105
-1104
-1104
-1104
-1105
-1106
-1106
-1107
-1108
-1108
-1107
-1107
-1106
-1106
-1107
-1108
-1109
-1110
-1110
-1110
-1110
-1110
-1109
-1110
-1111
-1112
-1112
-1113
-1113
-1113
-1112
-1112
-1111
-1112
-1113
-1113
-1114
-1115
-1115
-1114
-1114
-1114
-1113
-1113
-1114
-1114
-1115
-1116
-1116
-1116
-1116
-1115
-1114
-1114
-1115
-1115
-1116
-1116
-1117
-1116
-1115
-1115
-1115
-1115
-1114
-1115
-1116
-1116
-1117
-1116
-1115
-1115
-1116
-1116
-1116
-1116
-1117
-1116
-1117
-1117
-1117
-1117
-1116
-1116
-1116
-1117
-1117
-1118
-1119
-1119
-1118
-1116
-1116
-1117
-1118
-1118
-1119
-1120
-1120
-1120
-1119
-1118
-1118
-1118
-1119
-1119
-1120
-1120
-1120
-1120
-1119
-1119
-1118
-1119
-1120
-1120
-1120
-1120
-1121
-1120
-1120
-1119
-1119
-1120
-1120
-1120
-1121
-1121
-1121
-1121
-1120
-1119
-1119
-1120
-1121
-1121
-1121
-1120
-1119
-1119
-1119
-1118
-1118
-1119
-1120
-1121
-1121
-1120
-1120
-1119
-1118
-1118
-1117
-1119
-1120
-1121
-1121
-1121
-1121
-1120
-1119
-1118
-1117
-1117
-1118
-1119
-1119
-1119
-1120
-1119
-1119
-1119
-1118
-1119
-1119
-1118
-1118
-1119
-1119
-1118
-1117
-1116
-1116
-1117
-1117
-1117
-1115
-1115
-1115
-1114
-1112
-1111
-1109
-1108
-1107
-1107
-1108
-1109
-1108
-1107
-1106
-1105
-1104
-1102
-1099
-1097
-1096
-1094
-1094
-1096
-1097
-1098
-1100
-1103
-1107
-1109
-1111
-1112
-1112
-1112
-1112
-1113
-1115
-1117
-1119
-1121
-1122
-1122
-1122
-1122
-1123
-1123
-1122
-1123
-1124
-1125
-1125
-1125
-1125
-1125
-1124
-1124
-1124
-1124
-1125
-1126
-1126
-1126
-1125
-1125
-1125
-1126
-1128
-1131
-1136
-1143
-1152
-1159
-1165
-1170
-1171
-1163
-1148
-1129
-1107
-1071
-1022
-964
-900
-838
-780
-723
-667
-618
-577
-541
-514
-497
-504
-539
-588
-645
-718
-801
-888
-973
-1051
-1115
-1143
-1151
-1155
-1155
-1148
-1141
-1134
-1127
-1118
-1110
-1105
-1099
-1095
-1093
-1092
-1093
-1094
-1096
-1096
-1096
-1095
-1094
-1092
-1092
-1092
-1092
-1092
-1091
-1091
-1091
-1091
-1089
-1087
-1087
-1088
-1087
-1087
-1086
-1085
-1084
-1083
-1082
-1081
-1080
-1079
-1080
-1079
-1078
-1077
-1076
-1074
-1072
-1070
-1069
-1068
-1068
-1068
-1067
-1066
-1065
-1063
-1061
-1059
-1058
-1056
-1055
-1055
-1053
-1051
-1049
-1047
-1044
-1043
-1041
-1039
-1037
-1035
-1034
-1032
-1030
-1027
-1024
-1021
-1018
-1016
-1013
-1011
-1008
-1004
-1000
-996
-993
-990
-987
-985
-982
-979
-976
-973
-971
-967
-964
-961
-957
-956
-955
-953
-952
-951
-950
-948
-946
-944
-943
-943
-942
-942
-942
-943
-944
-946
-949
-951
-955
-960
-964
-969
-975
-981
-987
-992
-997
-1003
-1010
-1016
-1022
-1028
-1033
-1038
-1042
-1047
-1050
-1054
-1059
-1064
-1068
-1071
-1074
-1076
-1078
-1080
-1081
-1083
-1085
-1086
-1088
-1090
-1092
-1093
-1093
-1093
-1094
-1094
-1095
-1095
-1096
-1096
-1097
-1098
-1097
-1097
-1097
-1097
-1097
-1098
-1097
-1097
-1098
-1097
-1097
-1097
-1097
-1097
-1097
-1097
-1097
-1097
-1096
-1096
-1095
-1094
-1094
-1094
-1095
-1095
-1095
-1095
-1095
-1095
-1094
-1092
-1092
-1091
-1092
-1092
-1093
-1094
-1094
-1094
-1093
-1092
-1092
-1092
-1093
-1093
-1094
-1095
-1095
-1094
-1094
-1093
-1093
-1094
-1094
-1095
-1095
-1096
-1097
-1097
-1096
-1096
-1096
-1096
-1097
-1097
-1098
-1099
-1099
-1100
-1099
-1099
-1098
-1098
-1100
-1100
-1101
-1102
-1102
-1102
-1102
-1101
-1101
-1102
-1102
-1103
-1104
-1103
-1104
-1105
-1104
-1104
-1103
-1104
-1105
-1105
-1105
-1105
-1105
-1105
-1105
-1105
-1105
-1105
-1106
-1106
-1107
-1107
-1108
-1107
-1107
-1106
-1106
-1107
-1107
-1108
-1109
-1108
-1108
-1108
-1108
-1107
-1107
-1107
-1108
-1109
-1110
-1110
-1110
-1109
-1109
-1109
-1108
-1108
-1109
-1110
-1109
-1110
-1111
-1110
-1109
-1109
-1109
-1110
-1110
-1110
-1110
-1111
-1111
-1110
-1110
-1109
-1109
-1110
-1111
-1112
-1112
-1112
-1112
-1111
-1111
-1111
-1110
-1111
-1111
-1112
-1112
-1112
-1112
-1112
-1111
-1110
-1110
-1111
-1111
-1112
-1112
-1113
-1112
-1111
-1111
-1111
-1111
-1111
-1111
-1112
-1112
-1113
-1112
-1112
-1112
-1112
-1112
-1112
-1112
-1112
-1113
-1113
-1112
-1112
-1112
-1111
-1112
-1112
-1112
-1113
-1113
-1113
-1112
-1112
-1111
-1110
-1109
-1109
-1109
-1109
-1109
-1108
-1106
-1103
-1101
-1101
-1101
-1102
-1103
-1103
-1103
-1102
-1100
-1098
-1094
-1091
-1089
-1088
-1089
-1093
-1095
-1096
-1097
-1099
-1101
-1103
-1104
-1105
-1107
-1108
-1109
-1110
-1111
-1112
-1112
-1114
-1116
-1118
-1119
-1119
-1120
-1120
-1120
-1120
-1120
-1120
-1120
-1121
-1121
-1122
-1122
-1121
-1121
-1121
-1119
-1120
-1120
-1121
-1122
-1123
-1124
-1124
-1125
-1127
-1130
-1137
-1145
-1153
-1160
-1166
-1169
-1163
-1151
-1132
-1111
-1078
-1032
-977
-916
-855
-796
-740
-685
-634
-593
-555
-527
-507
-504
-529
-573
-625
-693
-773
-857
-945
-1024
-1095
-1133
-1144
-1151
-1156
-1152
-1145
-1137
-1131
-1124
-1116
-1110
-1105
-1100
-1097
-1095
-1094
-1094
-1094
-1095
-1095
-1097
-1097
-1096
-1096
-1095
-1094
-1093
-1092
-1092
-1092
-1091
-1091
-1091
-1091
-1091
-1089
-1087
-1087
-1086
-1086
-1085
-1085
-1084
-1083
-1082
-1080
-1079
-1078
-1078
-1077
-1076
-1075
-1074
-1073
-1071
-1069
-1068
-1067
-1067
-1065
-1065
-1064
-1062
-1060
-1058
-1056
-1054
-1052
-1051
-1050
-1049
-1047
-1045
-1043
-1041
-1039
-1036
-1033
-1031
-1029
-1028
-1027
-1025
-1022
-1018
-1015
-1012
-1009
-1006
-1003
-1000
-997
-995
-991
-987
-983
-980
-978
-976
-973
-971
-969
-966
-964
-961
-958
-957
-956
-954
-953
-952
-951
-950
-949
-948
-947
-947
-948
-950
-953
-956
-958
-961
-965
-968
-973
-978
-983
-989
-996
-1003
-1009
-1014
-1019
-1025
-1030
-1035
-1041
-1047
-1053
-1058
-1062
-1066
-1070
-1073
-1075
-1077
-1081
-1085
-1088
-1090
-1092
-1093
-1094
-1095
-1095
-1097
-1098
-1099
-1101
-1102
-1103
-1103
-1103
-1103
-1103
-1102
-1102
-1104
-1105
-1106
-1105
-1105
-1104
-1105
-1104
-1103
-1104
-1104
-1105
-1105
-1104
-1104
-1102
-1101
-1101
-1101
-1102
-1102
-1102
-1102
-1103
-1102
-1101
-1099
-1098
-1098
-1099
-1099
-1100
-1101
-1101
-1100
-1100
-1099
-1099
-1098
-1099
-1098
-1099
-1100
-1100
-1099
-1099
-1098
-1098
-1099
-1099
-1100
-1101
-1101
-1102
-1102
-1101
-1100
-1101
-1102
-1103
-1104
-1104
-1105
-1105
-1105
-1105
-1104
-1104
-1105
-1105
-1106
-1108
-1108
-1109
-1108
-1108
-1108
-1108
-1108
-1110
-1111
-1111
-1112
-1111
-1110
-1110
-1110
-1110
-1111
-1112
-1113
-1113
-1113
-1114
-1113
-1113
-1112
-1112
-1112
-1113
-1113
-1115
-1115
-1115
-1114
-1113
-1113
-1113
-1113
-1114
-1115
-1115
-1115
-1115
-1114
-1114
-1113
-1113
-1114
-1114
-1116
-1116
-1116
-1115
-1115
-1114
-1114
-1114
-1114
-1114
-1115
-1115
-1115
-1115
-1115
-1114
-1114
-1114
-1114
-1114
-1114
-1115
-1115
-1115
-1115
-1114
-1114
-1114
-1114
-1115
-1116
-1116
-1116
-1115
-1115
-1114
-1115
-1115
-1116
-1117
-1117
-1117
-1117
-1117
-1116
-1116
-1116
-1116
-1116
-1116
-1117
-1117
-1117
-1116
-1116
-1116
-1116
-1116
-1117
-1117
-1117
-1118
-1117
-1117
-1117
-1116
-1115
-1115
-1117
-1117
-1118
-1118
-1119
-1118
-1118
-1117
-1117
-1116
-1116
-1117
-1118
-1119
-1118
-1117
-1117
-1117
-1116
-1116
-1117
-1118
-1119
-1120
-1119
-1119
-1118
-1118
-1118
-1117
-1118
-1118
-1119
-1118
-1118
-1118
-1117
-1116
-1115
-1114
-1114
-1114
-1114
-1114
-1113
-1112
-1110
-1107
-1106
-1105
-1105
-1106
-1106
-1106
-1106
-1105
-1103
-1100
-1097
-1094
-1093
-1092
-1093
-1095
-1097
-1099
-1100
-1101
-1103
-1104
-1106
-1107
-1107
-1108
-1109
-1110
-1111
-1113
-1115
-1117
-1119
-1119
-1121
-1120
-1121
-1121
-1121
-1120
-1120
-1120
-1121
-1121
-1121
-1122
-1122
-1123
-1123
-1122
-1123
-1124
-1124
-1125
-1126
-1126
-1126
-1126
-1128
-1131
-1135
-1142
-1151
-1160
-1167
-1172
-1174
-1168
-1153
-1134
-1112
-1079
-1032
-974
-911
-849
-790
-732
-674
-621
-578
-540
-511
-493
-496
-528
-575
-629
-700
-784
-872
-959
-1038
-1106
-1141
-1152
-1157
-1155
-1147
-1139
-1132
-1126
-1118
-1111
-1105
-1101
-1098
-1096
-1095
-1095
-1095
-1096
-1095
-1096
-1095
-1095
-1096
-1095
-1094
-1094
-1093
-1093
-1092
-1092
-1092
-1091
-1091
-1090
-1088
-1087
-1086
-1086
-1085
-1084
-1083
-1083
-1082
-1081
-1078
-1077
-1077
-1077
-1077
-1076
-1075
-1073
-1072
-1071
-1070
-1069
-1067
-1066
-1066
-1065
-1064
-1062
-1060
-1057
-1056
-1055
-1054
-1052
-1051
-1049
-1048
-1046
-1044
-1042
-1039
-1036
-1035
-1034
-1032
-1030
-1028
-1025
-1022
-1018
-1015
-1013
-1011
-1009
-1006
-1004
-1001
-997
-993
-990
-985
-983
-980
-977
-974
-971
-969
-966
-963
-960
-958
-956
-954
-952
-951
-949
-948
-946
-944
-943
-942
-942
-941
-942
-944
-945
-948
-950
-953
-957
-960
-964
-970
-975
-981
-986
-992
-998
-1004
-1010
-1015
-1021
-1027
-1033
-1039
-1045
-1050
-1054
-1058
-1061
-1064
-1068
-1071
-1075
-1078
-1080
-1082
-1084
-1085
-1086
-1087
-1089
-1090
-1092
-1094
-1095
-1095
-1095
-1095
-1096
-1096
-1096
-1097
-1098
-1099
-1100
-1099
-1098
-1098
-1097
-1096
-1096
-1096
-1097
-1097
-1097
-1097
-1098
-1098
-1098
-1098
-1097
-1098
-1097
-1097
-1097
-1097
-1097
-1096
-1095
-1095
-1095
-1095
-1096
-1097
-1097
-1096
-1095
-1095
-1093
-1093
-1093
-1094
-1095
-1094
-1095
-1095
-1095
-1095
-1094
-1094
-1095
-1095
-1095
-1095
-1096
-1096
-1096
-1096
-1095
-1096
-1096
-1097
-1097
-1098
-1098
-1098
-1098
-1097
-1097
-1098
-1098
-1099
-1099
-1100
-1100
-1101
-1100
-1100
-1100
-1101
-1101
-1102
-1103
-1103
-1104
-1104
-1103
-1102
-1101
-1102
-1103
-1103
-1104
-1104
-1104
-1104
-1103
-1102
-1102
-1102
-1102
-1103
-1103
-1104
-1104
-1104
-1103
-1103
-1103
-1103
-1103
-1103
-1105
-1105
-1105
-1105
-1105
-1105
-1104
-1104
-1105
-1106
-1106
-1106
-1107
-1106
-1105
-1105
-1105
-1105
-1106
-1107
-1107
-1107
-1108
-1108
-1108
-1107
-1107
-1107
-1108
-1109
-1109
-1109
-1109
-1109
-1109
-1109
-1108
-1109
-1110
-1110
-1110
-1110
-1110
-1110
-1110
-1110
-1109
-1110
-1110
-1110
-1111
-1112
-1113
-1112
-1110
-1110
-1110
-1110
-1111
-1112
-1113
-1113
-1112
-1112
-1112
-1110
-1110
-1111
-1112
-1112
-1112
-1112
-1112
-1111
-1111
-1111
-1111
-1111
-1111
-1112
-1113
-1112
-1113
-1112
-1112
-1111
-1110
-1110
-1110
-1110
-1110
-1110
-1111
-1112
-1111
-1111
-1111
-1111
-1111
-1113
-1113
-1112
-1112
-1111
-1109
-1109
-1108
-1108
-1107
-1107
-1107
-1107
-1107
-1106
-1105
-1103
-1101
-1100
-1099
-1100
-1101
-1101
-1100
-1100
-1099
-1098
-1095
-1093
-1090
-1089
-1088
-1087
-1089
-1092
-1093
-1095
-1097
-1099
-1102
-1104
-1105
-1106
-1107
-1107
-1107
-1108
-1111
-1113
-1114
-1115
-1116
-1117
-1118
-1118
-1118
-1118
-1118
-1119
-1120
-1121
-1121
-1121
-1122
-1121
-1121
-1121
-1121
-1121
-1121
-1121
-1122
-1123
-1122
-1122
-1121
-1123
-1126
-1132
-1138
-1146
-1154
-1160
-1165
-1168
-1163
-1152
-1134
-1114
-1082
-1039
-984
-922
-860
-801
-746
-689
-637
-595
-557
-528
-507
-501
-523
-564
-614
-679
-760
-845
-935
-1017
-1090
-1131
-1143
-1148
-1153
-1150
-1143
-1137
-1131
-1123
-1114
-1107
-1102
-1098
-1095
-1093
-1092
-1094
-1095
-1096
-1096
-1095
-1094
-1094
-1093
-1092
-1092
-1092
-1092
-1093
-1093
-1092
-1091
-1090
-1089
-1088
-1088
-1088
-1088
-1087
-1086
-1086
-1084
-1083
-1082
-1082
-1081
-1081
-1080
-1079
-1078
-1077
-1076
-1074
-1072
-1071
-1071
-1071
-1071
-1070
-1069
-1068
-1066
-1064
-1063
-1062
-1060
-1059
-1059
-1057
-1055
-1053
-1051
-1048
-1046
-1044
-1042
-1041
-1039
-1038
-1035
-1032
-1030
-1027
-1024
-1021
-1019
-1017
-1014
-1011
-1008
-1004
-1001
-997
-993
-990
-987
-984
-981
-979
-977
-974
-971
-968
-965
-962
-960
-958
-956
-956
-955
-954
-951
-949
-948
-947
-947
-948
-948
-949
-951
-953
-954
-957
-960
-964
-969
-974
-980
-986
-991
-997
-1002
-1007
-1013
-1020
-1026
-1032
-1038
-1045
-1049
-1053
-1057
-1061
-1065
-1069
-1073
-1077
-1080
-1084
-1086
-1088
-1089
-1090
-1092
-1094
-1095
-1097
-1098
-1099
-1100
-1101
-1101
-1101
-1101
-1103
-1103
-1105
-1105
-1105
-1105
-1105
-1104
-1103
-1103
-1104
-1105
-1106
-1106
-1106
-1106
-1106
-1105
-1105
-1104
-1104
-1104
-1105
-1104
-1104
-1105
-1104
-1103
-1102
-1101
-1102
-1101
-1102
-1102
-1102
-1102
-1101
-1100
-1099
-1100
-1100
-1101
-1101
-1102
-1102
-1101
-1101
-1100
-1100
-1100
-1099
-1099
-1100
-1101
-1102
-1102
-1101
-1101
-1101
-1101
-1102
-1102
-1102
-1103
-1103
-1104
-1103
-1102
-1102
-1102
-1102
-1104
-1104
-1105
-1106
-1106
-1106
-1106
-1105
-1106
-1106
-1107
-1108
-1108
-1108
-1108
-1108
-1108
-1108
-1109
-1109
-1110
-1110
-1111
-1111
-1110
-1110
-1110
-1110
-1110
-1111
-1112
-1113
-1113
-1113
-1114
-1113
-1112
-1112
-1112
-1114
-1114
-1115
-1115
-1116
-1115
-1114
-1113
-1114
-1114
-1115
-1117
-1117
-1116
-1117
-1117
-1116
-1116
-1116
-1116
-1117
-1116
-1116
-1117
-1117
-1117
-1116
-1116
-1116
-1117
-1118
-1118
-1119
-1118
-1118
-1118
-1118
-1117
-1117
-1117
-1118
-1118
-1118
-1118
-1118
-1118
-1117
-1116
-1116
-1117
-1117
-1118
-1119
-1118
-1119
-1118
-1118
-1117
-1117
-1117
-1118
-1118
-1118
-1117
-1117
-1117
-1116
-1116
-1117
-1117
-1118
-1119
-1119
-1118
-1117
-1117
-1116
-1116
-1115
-1116
-1117
-1117
-1117
-1117
-1118
-1117
-1116
-1116
-1115
-1116
-1117
-1117
-1117
-1118
-1118
-1117
-1117
-1117
-1117
-1118
-1118
-1118
-1119
-1119
-1119
-1119
-1119
-1118
-1118
-1118
-1119
-1120
-1120
-1120
-1120
-1119
-1119
-1118
-1118
-1119
-1120
-1120
-1121
-1120
-1120
-1119
-1119
-1119
-1118
-1118
-1119
-1118
-1117
-1117
-1116
-1115
-1114
-1113
-1113
-1111
-1111
-1110
-1109
-1110
-1110
-1109
-1108
-1107
-1107
-1106
-1103
-1101
-1099
-1096
-1095
-1096
-1098
-1100
-1102
-1104
-1107
-1109
-1110
-1110
-1111
-1112
-1111
-1112
-1114
-1117
-1119
-1120
-1122
-1123
-1123
-1123
-1122
-1122
-1123
-1124
-1125
-1125
-1125
-1125
-1126
-1125
-1124
-1124
-1124
-1124
-1125
-1125
-1125
-1126
-1126
-1126
-1126
-1126
-1127
-1130
-1133
-1139
-1146
-1154
-1161
-1167
-1172
-1171
-1162
-1148
-1129
-1104
-1065
-1012
-951
-887
-825
-768
-711
-654
-606
-566
-531
-507
-493
-506
-546
-595
-657
-735
-822
-910
-995
-1070
-1128
-1149
-1156
-1159
-1155
-1149
-1142
-1136
-1129
-1119
-1112
-1106
-1102
-1100
-1099
-1100
-1101
-1101
-1102
-1102
-1102
-1101
-1100
-1099
-1100
-1100
-1100
-1099
-1099
-1098
-1097
-1096
-1096
-1094
-1094
-1094
-1093
-1092
-1092
-1092
-1091
-1089
-1088
-1087
-1087
-1086
-1086
-1084
-1082
-1081
-1080
-1079
-1078
-1077
-1076
-1075
-1074
-1072
-1071
-1070
-1069
-1067
-1065
-1063
-1062
-1061
-1059
-1059
-1057
-1055
-1053
-1051
-1048
-1047
-1045
-1044
-1043
-1040
-1038
-1036
-1033
-1030
-1027
-1024
-1022
-1020
-1018
-1015
-1011
-1008
-1004
-1001
-997
-994
-992
-989
-987
-984
-980
-976
-973
-971
-967
-965
-963
-962
-959
-957
-955
-953
-952
-950
-949
-948
-948
-948
-948
-948
-948
-949
-949
-950
-953
-956
-960
-965
-970
-976
-981
-985
-991
-996
-1002
-1008
-1014
-1020
-1027
-1033
-1039
-1045
-1050
-1054
-1058
-1063
-1068
-1072
-1076
-1079
-1082
-1083
-1085
-1087
-1089
-1091
-1093
-1095
-1097
-1098
-1099
-1100
-1100
-1100
-1101
-1101
-1102
-1103
-1103
-1104
-1103
-1103
-1103
-1102
-1103
-1103
-1104
-1104
-1104
-1104
-1104
-1103
-1102
-1102
-1102
-1102
-1102
-1102
-1102
-1102
-1101
-1101
-1099
-1099
-1099
-1100
-1100
-1101
-1101
-1101
-1100
-1099
-1099
-1098
-1099
-1099
-1099
-1100
-1101
-1101
-1100
-1099
-1099
-1098
-1099
-1099
-1100
-1100
-1101
-1101
-1100
-1100
-1099
-1099
-1100
-1100
-1101
-1102
-1102
-1102
-1103
-1103
-1103
-1102
-1102
-1103
-1104
-1105
-1106
-1106
-1105
-1105
-1105
-1105
-1106
-1106
-1107
-1107
-1108
-1109
-1109
-1108
-1107
-1107
-1108
-1108
-1109
-1109
-1110
-1111
-1110
-1109
-1109
-1110
-1109
-1110
-1110
-1111
-1111
-1112
-1111
-1110
-1110
-1110
-1110
-1111
-1111
-1112
-1112
-1111
-1111
-1110
-1109
-1109
-1110
-1111
-1112
-1112
-1112
-1111
-1110
-1110
-1109
-1109
-1111
-1112
-1113
-1113
-1112
-1112
-1111
-1111
-1110
-1110
-1111
-1111
-1111
-1112
-1113
-1113
-1112
-1112
-1111
-1111
-1111
-1111
-1112
-1113
-1112
-1112
-1112
-1111
-1110
-1111
-1112
-1112
-1112
-1113
-1113
-1113
-1112
-1111
-1112
-1112
-1112
-1113
-1113
-1113
-1114
-1113
-1113
-1112
-1112
-1112
-1112
-1113
-1113
-1114
-1114
-1113
-1113
-1113
-1113
-1113
-1113
-1113
-1114
-1114
-1114
-1114
-1112
-1112
-1112
-1112
-1113
-1113
-1114
-1115
-1115
-1115
-1114
-1113
-1112
-1112
-1113
-1114
-1115
-1114
-1114
-1114
-1113
-1111
-1110
-1111
-1111
-1113
-1114
-1114
-1114
-1114
-1112
-1111
-1111
-1110
-1110
-1110
-1110
-1109
-1108
-1108
-1107
-1103
-1102
-1101
-1101
-1102
-1103
-1102
-1101
-1101
-1100
-1098
-1095
-1092
-1090
-1088
-1087
-1089
-1091
-1093
-1094
-1096
-1097
-1099
-1101
-1102
-1103
-1105
-1106
-1107
-1106
-1108
-1110
-1111
-1112
-1114
-1115
-1116
-1116
-1116
-1116
-1116
-1116
-1117
-1118
-1118
-1118
-1119
-1119
-1118
-1118
-1117
-1118
-1118
-1119
-1120
-1120
-1120
-1121
-1120
-1120
-1122
-1125
-1130
-1137
-1145
-1153
-1159
-1164
-1165
-1157
-1142
-1123
-1100
-1065
-1018
-961
-899
-838
-782
-727
-673
-625
-585
-549
-522
-504
-507
-538
-586
-643
-716
-798
-885
-972
-1049
-1111
-1138
-1146
-1152
-1156
-1151
-1144
-1137
-1130
-1122
-1114
-1107
-1102
-1097
-1094
-1092
-1092
-1092
-1093
-1094
-1095
-1095
-1094
-1094
-1092
-1092
-1091
-1091
-1090
-1090
-1090
-1089
-1089
-1087
-1086
-1086
-1085
-1085
-1085
-1084
-1083
-1083
-1082
-1081
-1079
-1079
-1078
-1078
-1078
-1076
-1075
-1074
-1073
-1071
-1069
-1069
-1068
-1068
-1067
-1067
-1065
-1063
-1061
-1059
-1057
-1056
-1055
-1053
-1053
-1052
-1050
-1049
-1047
-1044
-1042
-1039
-1038
-1036
-1034
-1033
-1030
-1028
-1025
-1022
-1019
-1016
-1014
-1012
-1010
-1007
-1004
-1000
-997
-993
-989
-986
-983
-981
-979
-977
-974
-972
-969
-966
-963
-960
-957
-956
-955
-955
-954
-952
-950
-948
-948
-947
-947
-947
-947
-948
-950
-952
-954
-957
-960
-964
-969
-975
-981
-986
-991
-997
-1003
-1008
-1014
-1019
-1026
-1032
-1038
-1044
-1049
-1053
-1057
-1060
-1064
-1068
-1072
-1076
-1080
-1082
-1084
-1086
-1087
-1089
-1089
-1091
-1093
-1095
-1096
-1097
-1098
-1099
-1099
-1099
-1099
-1100
-1100
-1101
-1101
-1102
-1102
-1101
-1101
-1101
-1101
-1102
-1103
-1104
-1104
-1105
-1105
-1104
-1102
-1102
-1102
-1101
-1102
-1102
-1102
-1102
-1101
-1101
-1101
-1100
-1099
-1099
-1100
-1099
-1100
-1100
-1100
-1099
-1098
-1098
-1098
-1097
-1098
-1099
-1099
-1099
-1098
-1098
-1098
-1098
-1098
-1098
-1099
-1099
-1100
-1100
-1100
-1099
-1099
-1099
-1099
-1100
-1101
-1101
-1102
-1102
-1101
-1101
-1101
-1101
-1101
-1102
-1102
-1104
-1104
-1105
-1105
-1104
-1104
-1104
-1104
-1105
-1107
-1107
-1108
-1108
-1109
-1108
-1107
-1107
-1108
-1108
-1109
-1110
-1110
-1110
-1110
-1110
-1110
-1110
-1109
-1110
-1111
-1112
-1111
-1111
-1112
-1111
-1111
-1111
-1111
-1112
-1113
-1113
-1113
-1114
-1114
-1114
-1113
-1113
-1113
-1113
-1114
-1115
-1115
-1115
-1114
-1113
-1113
-1112
-1112
-1113
-1114
-1115
-1116
-1116
-1116
-1116
-1115
-1115
-1114
-1114
-1115
-1115
-1115
-1115
-1116
-1116
-1115
-1115
-1115
-1115
-1116
-1117
-1116
-1117
-1116
-1116
-1116
-1115
-1116
-1116
-1116
-1116
-1116
-1116
-1116
-1116
-1116
-1115
-1115
-1116
-1116
-1117
-1116
-1116
-1116
-1116
-1116
-1115
-1116
-1116
-1117
-1117
-1117
-1116
-1116
-1116
-1115
-1115
-1114
-1115
-1116
-1117
-1118
-1118
-1117
-1118
-1116
-1116
-1117
-1117
-1117
-1117
-1118
-1117
-1117
-1116
-1116
-1116
-1116
-1117
-1117
-1118
-1118
-1118
-1118
-1117
-1115
-1115
-1116
-1117
-1119
-1119
-1118
-1118
-1117
-1117
-1116
-1116
-1117
-1117
-1118
-1118
-1119
-1118
-1118
-1117
-1116
-1115
-1116
-1115
-1115
-1114
-1114
-1113
-1114
-1113
-1111
-1110
-1109
-1107
-1107
-1107
-1108
-1108
-1106
-1105
-1105
-1104
-1102
-1100
-1097
-1095
-1093
-1093
-1095
-1096
-1098
-1101
-1103
-1105
-1106
-1107
-1108
-1109
-1109
-1109
-1110
-1112
-1115
-1116
-1118
-1121
-1121
-1121
-1121
-1120
-1120
-1121
-1121
-1122
-1122
-1123
-1123
-1123
-1123
-1122
-1123
-1122
-1123
-1123
-1124
-1124
-1124
-1124
-1123
-1123
-1123
-1125
-1128
-1133
-1139
-1146
-1154
-1161
-1167
-1171
-1170
-1160
-1145
-1125
-1099
-1058
-1004
-943
-880
-818
-761
-703
-647
-600
-559
-525
-501
-490
-508
-550
-601
-665
-744
-830
-918
-1001
-1075
-1129
-1147
-1153
-1156
-1151
-1143
-1137
-1131
-1124
-1115
-1109
-1104
-1099
-1097
-1095
-1096
-1096
-1096
-1097
-1097
-1097
-1096
-1096
-1096
-1096
-1096
-1096
-1096
-1095
-1094
-1093
-1092
-1091
-1091
-1090
-1090
-1089
-1089
-1089
-1087
-1087
-1085
-1083
-1082
-1082
-1082
-1082
-1081
-1080
-1078
-1077
-1076
-1074
-1073
-1072
-1072
-1071
-1070
-1068
-1067
-1066
-1064
-1062
-1061
-1060
-1059
-1058
-1056
-1054
-1052
-1050
-1048
-1045
-1043
-1041
-1041
-1040
-1038
-1036
-1033
-1030
-1027
-1024
-1022
-1019
-1017
-1014
-1011
-1008
-1005
-1001
-998
-993
-990
-987
-985
-982
-979
-976
-973
-970
-966
-963
-961
-959
-957
-956
-954
-952
-949
-948
-946
-944
-943
-942
-942
-941
-942
-942
-942
-944
-946
-948
-951
-956
-961
-966
-971
-976
-981
-986
-991
-998
-1004
-1010
-1017
-1024
-1030
-1036
-1040
-1045
-1049
-1053
-1058
-1063
-1068
-1072
-1075
-1078
-1081
-1083
-1085
-1086
-1088
-1090
-1092
-1093
-1095
-1096
-1097
-1096
-1096
-1097
-1098
-1099
-1101
-1101
-1101
-1101
-1101
-1100
-1100
-1100
-1100
-1101
-1101
-1101
-1101
-1101
-1101
-1100
-1100
-1100
-1100
-1101
-1101
-1101
-1101
-1101
-1101
-1099
-1099
-1099
-1099
-1099
-1099
-1099
-1099
-1098
-1098
-1096
-1096
-1096
-1097
-1098
-1099
-1099
-1098
-1097
-1097
-1096
-1095
-1095
-1096
-1098
-1098
-1099
-1098
-1098
-1097
-1097
-1098
-1097
-1098
-1098
-1098
-1099
-1099
-1099
-1099
-1098
-1098
-1098
-1099
-1100
-1101
-1102
-1102
-1102
-1101
-1101
-1101
-1102
-1103
-1103
-1104
-1104
-1103
-1103
-1103
-1103
-1103
-1104
-1104
-1105
-1105
-1106
-1106
-1106
-1106
-1105
-1105
-1105
-1106
-1107
-1107
-1107
-1107
-1107
-1107
-1106
-1106
-1106
-1107
-1107
-1107
-1107
-1107
-1107
-1106
-1106
-1107
-1108
-1109
-1110
-1110
-1110
-1110
-1109
-1109
-1107
-1107
-1107
-1108
-1108
-1109
-1110
-1110
-1110
-1109
-1108
-1108
-1108
-1109
-1109
-1109
-1110
-1110
-1110
-1109
-1108
-1108
-1108
-1108
-1110
-1110
-1110
-1110
-1110
-1110
-1109
-1109
-1110
-1109
-1110
-1110
-1110
-1111
-1110
-1110
-1109
-1109
-1109
-1110
-1110
-1111
-1111
-1111
-1110
-1108
-1108
-1109
-1109
-1110
-1110
-1111
-1111
-1109
-1109
-1108
-1108
-1109
-1109
-1111
-1111
-1111
-1112
-1111
-1111
-1110
-1109
-1109
-1110
-1110
-1111
-1111
-1111
-1110
-1111
-1110
-1110
-1109
-1110
-1110
-1110
-1111
-1111
-1111
-1110
-1109
-1109
-1109
-1109
-1110
-1110
-1111
-1111
-1111
-1110
-1109
-1109
-1109
-1110
-1110
-1109
-1110
-1110
-1108
-1106
-1106
-1105
-1105
-1106
-1106
-1104
-1102
-1101
-1100
-1100
-1101
-1099
-1099
-1100
-1099
-1098
-1096
-1093
-1090
-1086
-1084
-1084
-1087
-1090
-1092
-1094
-1097
-1099
-1099
-1099
-1099
-1101
-1102
-1103
-1105
-1107
-1109
-1110
-1111
-1111
-1111
-1112
-1113
-1114
-1114
-1115
-1115
-1115
-1114
-1114
-1115
-1115
-1114
-1115
-1116
-1117
-1117
-1116
-1116
-1115
-1115
-1115
-1116
-1117
-1118
-1119
-1121
-1124
-1128
-1134
-1141
-1149
-1156
-1161
-1161
-1151
-1135
-1115
-1088
-1046
-994
-935
-873
-815
-761
-707
-654
-610
-570
-535
-510
-495
-509
-549
-601
-662
-740
-822
-910
-993
-1066
-1117
-1135
-1144
-1152
-1156
-1150
-1141
-1133
-1126
-1116
-1107
-1102
-1097
-1093
-1091
-1089
-1089
-1089
-1088
-1087
-1087
-1089
-1089
-1089
-1090
-1089
-1087
-1087
-1085
-1084
-1084
-1084
-1085
-1085
-1085
-1083
-1082
-1081
-1080
-1079
-1079
-1078
-1078
-1077
-1077
-1076
-1075
-1074
-1072
-1070
-1070
-1069
-1069
-1068
-1068
-1066
-1065
-1063
-1061
-1059
-1058
-1058
-1057
-1056
-1055
-1053
-1051
-1049
-1047
-1044
-1043
-1042
-1041
-1040
-1039
-1037
-1035
-1032
-1030
-1027
-1025
-1023
-1021
-1019
-1017
-1014
-1011
-1007
-1004
-1001
-998
-995
-993
-991
-987
-984
-980
-977
-974
-970
-968
-966
-964
-962
-960
-958
-955
-953
-951
-949
-948
-947
-947
-946
-945
-944
-944
-943
-943
-945
-947
-949
-952
-955
-959
-963
-967
-971
-976
-982
-989
-995
-1000
-1007
-1013
-1018
-1023
-1029
-1034
-1039
-1045
-1051
-1056
-1061
-1065
-1068
-1071
-1073
-1075
-1078
-1081
-1084
-1087
-1089
-1090
-1091
-1092
-1093
-1094
-1095
-1096
-1097
-1098
-1100
-1100
-1100
-1100
-1100
-1100
-1100
-1101
-1101
-1102
-1102
-1103
-1103
-1102
-1101
-1101
-1100
-1101
-1101
-1102
-1102
-1101
-1101
-1101
-1100
-1100
-1099
-1099
-1100
-1100
-1100
-1101
-1100
-1098
-1097
-1096
-1096
-1098
-1098
-1099
-1099
-1099
-1098
-1097
-1096
-1096
-1096
-1097
-1097
-1098
-1099
-1099
-1099
-1097
-1097
-1098
-1098
-1099
-1100
-1100
-1100
-1100
-1100
-1100
-1099
-1099
-1101
-1101
-1101
-1102
-1103
-1104
-1104
-1103
-1103
-1103
-1103
-1104
-1105
-1106
-1107
-1107
-1107
-1106
-1106
-1106
-1107
-1107
-1108
-1109
-1109
-1109
-1109
-1109
-1109
-1109
-1109
-1110
-1110
-1110
-1110
-1110
-1110
-1110
-1111
-1112
-1112
-1112
-1112
-1113
-1113
-1113
-1113
-1112
-1112
-1113
-1113
-1113
-1114
-1114
-1115
-1114
-1113
-1113
-1112
-1113
-1114
-1114
-1115
-1116
-1116
-1115
-1115
-1115
-1114
-1114
-1114
-1114
-1115
-1116
-1116
-1116
-1116
-1115
-1115
-1115
-1115
-1116
-1116
-1116
-1117
-1116
-1115
-1115
-1116
-1116
-1117
-1117
-1117
-1117
-1118
-1117
-1117
-1116
-1116
-1116
-1116
-1117
-1117
-1118
-1117
-1117
-1116
-1115
-1116
-1116
-1117
-1117
-1118
-1118
-1118
-1118
-1117
-1117
-1117
-1116
-1116
-1117
-1118
-1118
-1118
-1118
-1118
-1117
-1117
-1117
-1118
-1118
-1118
-1118
-1118
-1118
-1117
-1118
-1117
-1117
-1117
-1118
-1118
-1118
-1119
-1119
-1118
-1118
-1117
-1117
-1118
-1118
-1118
-1119
-1119
-1118
-1118
-1117
-1118
-1118
-1118
-1118
-1118
-1117
-1117
-1116
-1115
-1113
-1113
-1112
-1111
-1110
-1109
-1108
-1108
-1107
-1107
-1106
-1105
-1106
-1105
-1105
-1103
-1100
-1097
-1096
-1094
-1095
-1097
-1099
-1101
-1103
-1106
-1109
-1110
-1110
-1110
-1110
-1111
-1112
-1114
-1117
-1118
-1120
-1122
-1122
-1121
-1121
-1121
-1122
-1124
-1125
-1125
-1126
-1126
-1126
-1126
-1125
-1124
-1123
-1124
-1125
-1126
-1127
-1126
-1126
-1125
-1125
-1127
-1127
-1128
-1130
-1134
-1138
-1144
-1152
-1159
-1165
-1172
-1175
-1170
-1158
-1139
-1117
-1084
-1037
-979
-916
-853
-795
-738
-681
-627
-583
-545
-514
-493
-492
-522
-570
-624
-696
-779
-868
-955
-1035
-1104
-1141
-1152
-1158
-1157
-1151
-1144
-1137
-1131
-1123
-1115
-1108
-1103
-1101
-1099
-1099
-1099
-1100
-1101
-1101
-1100
-1099
-1100
-1100
-1100
-1100
-1100
-1099
-1098
-1098
-1096
-1094
-1095
-1095
-1095
-1095
-1094
-1093
-1092
-1091
-1090
-1089
-1089
-1088
-1087
-1087
-1087
-1086
-1084
-1083
-1081
-1080
-1078
-1078
-1078
-1077
-1076
-1075
-1073
-1071
-1069
-1068
-1067
-1066
-1066
-1066
-1064
-1062
-1060
-1057
-1054
-1052
-1051
-1050
-1048
-1048
-1046
-1044
-1041
-1038
-1035
-1033
-1031
-1029
-1027
-1024
-1022
-1018
-1015
-1011
-1007
-1004
-1001
-999
-996
-993
-990
-986
-983
-979
-975
-972
-970
-967
-966
-964
-962
-959
-957
-954
-953
-951
-950
-950
-949
-948
-948
-947
-946
-947
-948
-950
-953
-957
-960
-964
-969
-973
-978
-984
-989
-995
-1001
-1009
-1015
-1021
-1027
-1033
-1039
-1043
-1048
-1054
-1060
-1065
-1070
-1075
-1078
-1081
-1083
-1085
-1088
-1090
-1093
-1095
-1097
-1100
-1101
-1102
-1103
-1103
-1103
-1104
-1106
-1107
-1108
-1109
-1110
-1110
-1109
-1109
-1109
-1110
-1111
-1111
-1112
-1111
-1110
-1110
-1109
-1108
-1109
-1110
-1111
-1111
-1111
-1111
-1111
-1110
-1110
-1109
-1109
-1109
-1109
-1109
-1109
-1109
-1109
-1109
-1107
-1107
-1106
-1107
-1107
-1107
-1107
-1107
-1107
-1107
-1107
-1106
-1106
-1106
-1106
-1106
-1107
-1107
-1107
-1107
-1107
-1106
-1106
-1107
-1108
-1108
-1109
-1109
-1110
-1109
-1109
-1108
-1108
-1109
-1110
-1110
-1111
-1111
-1111
-1111
-1110
-1111
-1111
-1112
-1113
-1114
-1115
-1115
-1114
-1115
-1114
-1114
-1114
-1115
-1116
-1117
-1117
-1117
-1117
-1117
-1117
-1116
-1116
-1117
-1118
-1118
-1119
-1119
-1120
-1119
-1119
-1119
-1119
-1120
-1120
-1121
-1121
-1121
-1120
-1120
-1119
-1119
-1119
-1120
-1121
-1121
-1121
-1121
-1121
-1121
-1120
-1121
-1120
-1121
-1121
-1121
-1121
-1122
-1121
-1121
-1121
-1120
-1121
-1122
-1123
-1123
-1123
-1123
-1122
-1121
-1120
-1120
-1120
-1121
-1122
-1122
-1123
-1122
-1121
-1120
-1120
-1120
-1121
-1122
-1122
-1123
-1122
-1122
-1122
-1121
-1121
-1121
-1121
-1122
-1123
-1123
-1122
-1122
-1122
-1121
-1121
-1121
-1121
-1122
-1122
-1122
-1122
-1122
-1122
-1122
-1121
-1121
-1121
-1121
-1121
-1122
-1121
-1122
-1121
-1120
-1120
-1120
-1120
-1121
-1121
-1121
-1121
-1121
-1121
-1120
-1120
-1119
-1120
-1121
-1121
-1121
-1122
-1121
-1120
-1119
-1119
-1120
-1121
-1120
-1121
-1121
-1121
-1121
-1121
-1119
-1119
-1119
-1119
-1118
-1118
-1118
-1117
-1116
-1115
-1114
-1112
-1110
-1109
-1109
-1108
-1109
-1110
-1108
-1108
-1107
-1106
-1104
-1101
-1099
-1097
-1096
-1095
-1098
-1100
-1101
-1103
-1105
-1107
-1109
-1111
-1112
-1112
-1112
-1112
-1113
-1114
-1117
-1118
-1120
-1122
-1123
-1123
-1122
-1122
-1122
-1122
-1122
-1122
-1124
-1125
-1125
-1124
-1124
-1123
-1123
-1123
-1123
-1123
-1124
-1124
-1124
-1125
-1125
-1123
-1122
-1125
-1128
-1132
-1138
-1147
-1155
-1161
-1166
-1170
-1166
-1156
-1140
-1119
-1091
-1047
-993
-932
-869
-810
-754
-698
-644
-601
-562
-529
-504
-494
-514
-556
-607
-673
-754
-839
-929
-1010
-1082
-1130
-1146
-1152
-1157
-1155
-1148
-1140
-1134
-1127
-1117
-1110
-1104
-1099
-1095
-1093
-1093
-1094
-1095
-1095
-1096
-1095
-1094
-1093
-1092
-1091
-1091
-1091
-1091
-1091
-1091
-1090
-1089
-1088
-1087
-1086
-1085
-1085
-1085
-1085
-1084
-1083
-1081
-1080
-1080
-1079
-1078
-1077
-1076
-1076
-1075
-1074
-1072
-1070
-1069
-1067
-1066
-1065
-1065
-1065
-1064
-1061
-1059
-1057
-1056
-1055
-1054
-1053
-1051
-1050
-1048
-1046
-1044
-1041
-1039
-1037
-1035
-1034
-1033
-1031
-1028
-1026
-1023
-1020
-1017
-1014
-1012
-1010
-1008
-1004
-1001
-998
-994
-991
-988
-984
-981
-978
-976
-973
-970
-966
-963
-960
-958
-955
-954
-952
-951
-949
-947
-946
-944
-942
-940
-940
-939
-939
-940
-940
-941
-943
-944
-946
-949
-953
-957
-962
-968
-974
-980
-985
-990
-996
-1002
-1008
-1015
-1021
-1027
-1033
-1038
-1042
-1047
-1051
-1056
-1060
-1065
-1069
-1072
-1076
-1078
-1080
-1081
-1083
-1084
-1086
-1088
-1090
-1092
-1093
-1093
-1094
-1094
-1094
-1094
-1095
-1096
-1097
-1098
-1099
-1099
-1098
-1098
-1098
-1097
-1098
-1098
-1099
-1100
-1100
-1100
-1099
-1098
-1098
-1097
-1096
-1097
-1098
-1097
-1098
-1098
-1097
-1096
-1095
-1095
-1096
-1096
-1097
-1096
-1096
-1095
-1094
-1093
-1093
-1092
-1094
-1095
-1094
-1095
-1095
-1095
-1095
-1093
-1093
-1093
-1094
-1095
-1096
-1096
-1096
-1096
-1096
-1095
-1095
-1095
-1096
-1097
-1097
-1098
-1098
-1099
-1098
-1098
-1097
-1098
-1099
-1100
-1101
-1102
-1102
-1102
-1102
-1102
-1102
-1102
-1103
-1104
-1105
-1105
-1105
-1105
-1105
-1104
-1104
-1104
-1105
-1106
-1107
-1107
-1107
-1106
-1106
-1106
-1105
-1106
-1107
-1107
-1107
-1108
-1109
-1109
-1109
-1109
-1108
-1108
-1109
-1110
-1110
-1110
-1110
-1110
-1109
-1108
-1108
-1109
-1110
-1110
-1110
-1111
-1111
-1110
-1110
-1110
-1110
-1110
-1110
-1111
-1112
-1111
-1112
-1111
-1111
-1111
-1111
-1112
-1112
-1112
-1112
-1112
-1112
-1111
-1112
-1112
-1112
-1112
-1112
-1113
-1113
-1113
-1113
-1113
-1113
-1113
-1112
-1113
-1113
-1114
-1115
-1114
-1114
-1113
-1113
-1113
-1113
-1113
-1114
-1114
-1114
-1114
-1114
-1114
-1113
-1113
-1113
-1113
-1114
-1115
-1115
-1115
-1115
-1114
-1114
-1114
-1114
-1114
-1115
-1115
-1116
-1116
-1116
-1115
-1114
-1114
-1114
-1114
-1114
-1115
-1114
-1113
-1112
-1110
-1109
-1108
-1108
-1108
-1107
-1106
-1105
-1105
-1105
-1103
-1102
-1103
-1102
-1102
-1100
-1097
-1094
-1093
-1091
-1090
-1093
-1095
-1097
-1099
-1101
-1104
-1105
-1106
-1107
-1108
-1108
-1109
-1110
-1112
-1115
-1117
-1117
-1119
-1119
-1118
-1118
-1119
-1120
-1121
-1122
-1122
-1122
-1122
-1122
-1122
-1121
-1120
-1121
-1122
-1123
-1123
-1123
-1123
-1123
-1122
-1122
-1122
-1123
-1126
-1128
-1132
-1137
-1144
-1152
-1159
-1164
-1169
-1168
-1160
-1144
-1124
-1098
-1057
-1004
-942
-879
-818
-761
-705
-650
-605
-566
-532
-505
-490
-505
-545
-595
-658
-738
-824
-913
-999
-1073
-1126
-1145
-1151
-1156
-1154
-1148
-1141
-1134
-1127
-1117
-1109
-1104
-1099
-1097
-1096
-1096
-1097
-1097
-1097
-1097
-1095
-1095
-1095
-1095
-1096
-1096
-1095
-1095
-1094
-1093
-1091
-1091
-1090
-1090
-1090
-1090
-1089
-1089
-1088
-1086
-1085
-1084
-1084
-1083
-1082
-1082
-1081
-1080
-1080
-1078
-1076
-1075
-1074
-1074
-1074
-1073
-1072
-1071
-1069
-1067
-1065
-1063
-1063
-1062
-1061
-1060
-1059
-1057
-1055
-1053
-1051
-1049
-1047
-1045
-1044
-1043
-1040
-1038
-1035
-1032
-1030
-1028
-1025
-1023
-1021
-1019
-1017
-1014
-1009
-1005
-1002
-998
-996
-994
-991
-987
-984
-980
-976
-973
-969
-966
-964
-964
-962
-960
-958
-955
-952
-950
-949
-947
-945
-945
-945
-945
-945
-945
-945
-945
-946
-949
-952
-956
-959
-965
-970
-975
-979
-985
-990
-996
-1002
-1009
-1015
-1022
-1028
-1033
-1038
-1043
-1048
-1053
-1058
-1063
-1067
-1071
-1075
-1078
-1080
-1082
-1084
-1085
-1087
-1089
-1092
-1094
-1096
-1096
-1096
-1097
-1098
-1098
-1100
-1101
-1101
-1102
-1102
-1102
-1102
-1101
-1101
-1102
-1103
-1103
-1104
-1105
-1105
-1104
-1104
-1103
-1102
-1102
-1102
-1102
-1103
-1104
-1104
-1103
-1103
-1102
-1101
-1101
-1100
-1101
-1101
-1101
-1101
-1100
-1099
-1098
-1098
-1098
-1099
-1100
-1100
-1100
-1100
-1099
-1098
-1097
-1097
-1097
-1098
-1099
-1099
-1099
-1099
-1099
-1098
-1098
-1098
-1099
-1100
-1100
-1101
-1102
-1101
-1101
-1101
-1100
-1100
-1100
-1101
-1102
-1102
-1103
-1103
-1103
-1102
-1103
-1103
-1103
-1103
-1104
-1105
-1105
-1106
-1106
-1106
-1105
-1105
-1105
-1106
-1107
-1108
-1108
-1108
-1107
-1107
-1106
-1106
-1107
-1107
-1108
-1109
-1109
-1109
-1109
-1108
-1108
-1108
-1109
-1109
-1109
-1110
-1109
-1110
-1109
-1108
-1109
-1109
-1109
-1110
-1110
-1111
-1111
-1111
-1111
-1110
-1109
-1109
-1110
-1111
-1111
-1112
-1111
-1110
-1109
-1109
-1109
-1110
-1110
-1110
-1111
-1112
-1112
-1112
-1111
-1110
-1110
-1109
-1109
-1110
-1111
-1111
-1111
-1111
-1110
-1110
-1109
-1109
-1110
-1111
-1111
-1111
-1111
-1112
-1111
-1110
-1110
-1110
-1110
-1110
-1111
-1110
-1111
-1110
-1110
-1110
-1109
-1109
-1109
-1109
-1110
-1110
-1110
-1109
-1109
-1109
-1108
-1108
-1109
-1109
-1110
-1110
-1110
-1110
-1109
-1108
-1107
-1106
-1106
-1106
-1106
-1106
-1105
-1105
-1104
-1103
-1100
-1097
-1097
-1097
-1097
-1098
-1098
-1097
-1097
-1096
-1095
-1093
-1091
-1088
-1085
-1083
-1083
-1085
-1087
-1088
-1089
-1091
-1093
-1096
-1097
-1098
-1099
-1099
-1098
-1099
-1101
-1104
-1106
-1107
-1108
-1109
-1110
-1109
-1109
-1109
-1109
-1110
-1110
-1111
-1111
-1111
-1111
-1111
-1111
-1111
-1111
-1112
-1113
-1112
-1112
-1113
-1112
-1112
-1111
-1110
-1112
-1115
-1119
-1124
-1132
-1140
-1147
-1153
-1157
-1156
-1146
-1130
-1111
-1084
-1044
-991
-932
-869
-808
-751
-696
-642
-597
-558
-523
-497
-482
-496
-535
-586
-649
-728
-812
-902
-986
-1061
-1114
-1132
-1139
-1145
-1145
-1138
-1130
-1123
-1117
-1107
-1098
-1092
-1087
-1084
-1082
-1082
-1083
-1083
-1083
-1084
-1084
-1082
-1081
-1080
-1079
-1079
-1079
-1079
-1079
-1078
-1077
-1076
-1075
-1074
-1074
-1074
-1074
-1073
-1072
-1071
-1070
-1068
-1067
-1066
-1065
-1064
-1063
-1063
-1061
-1061
-1060
-1058
-1056
-1056
-1055
-1054
-1053
-1052
-1050
-1049
-1047
-1045
-1043
-1042
-1041
-1041
-1039
-1038
-1036
-1034
-1031
-1029
-1026
-1024
-1023
-1021
-1019
-1017
-1015
-1012
-1010
-1008
-1005
-1002
-1000
-998
-995
-993
-990
-986
-983
-978
-974
-971
-968
-965
-963
-961
-958
-955
-952
-949
-945
-943
-940
-938
-936
-935
-933
-932
-930
-928
-927
-926
-926
-926
-926
-926
-926
-927
-928
-930
-933
-936
-940
-944
-949
-954
-960
-965
-970
-976
-982
-987
-994
-1001
-1006
-1012
-1018
-1023
-1027
-1032
-1036
-1039
-1044
-1048
-1051
-1055
-1059
-1061
-1063
-1064
-1066
-1068
-1070
-1071
-1073
-1074
-1075
-1075
-1075
-1075
-1075
-1076
-1077
-1079
-1079
-1080
-1080
-1080
-1080
-1079
-1079
-1080
-1080
-1079
-1080
-1080
-1080
-1080
-1079
-1078
-1078
-1078
-1078
-1078
-1078
-1078
-1078
-1078
-1077
-1075
-1075
-1075
-1075
-1075
-1075
-1076
-1076
-1075
-1073
-1072
-1072
-1072
-1073
-1073
-1073
-1073
-1073
-1073
-1072
-1072
-1071
-1072
-1073
-1073
-1073
-1074
-1074
-1074
-1072
-1072
-1072
-1073
-1074
-1076
-1077
-1076
-1076
-1076
-1075
-1076
-1076
-1076
-1077
-1078
-1080
-1080
-1080
-1080
-1080
-1080
-1080
-1080
-1081
-1082
-1083
-1083
-1083
-1083
-1082
-1082
-1082
-1083
-1084
-1084
-1085
-1085
-1085
-1084
-1084
-1084
-1084
-1085
-1085
-1086
-1086
-1086
-1086
-1086
-1085
-1085
-1085
-1085
-1086
-1086
-1087
-1087
-1087
-1087
-1086
-1086
-1086
-1086
-1086
-1087
-1087
-1087
-1088
-1088
-1087
-1087
-1087
-1087
-1088
-1088
-1088
-1089
-1089
-1089
-1088
-1088
-1088
-1088
-1089
-1089
-1090
-1089
-1089
-1089
-1088
-1088
-1088
-1088
-1089
-1090
-1090
-1090
-1090
-1089
-1089
-1088
-1088
-1088
-1089
-1090
-1090
-1090
-1090
-1090
-1088
-1088
-1088
-1089
-1090
-1090
-1090
-1090
-1089
-1087
-1086
-1085
-1085
-1085
-1086
-1086
-1084
-1082
-1081
-1080
-1079
-1079
-1079
-1079
-1079
-1079
-1078
-1076
-1072
-1069
-1067
-1065
-1064
-1067
-1069
-1072
-1075
-1077
-1078
-1079
-1079
-1081
-1082
-1083
-1084
-1086
-1088
-1090
-1090
-1091
-1092
-1093
-1093
-1095
-1095
-1096
-1098
-1097
-1098
-1097
-1096
-1096
-1096
-1097
-1097
-1098
-1098
-1098
-1097
-1097
-1097
-1097
-1097
-1098
-1099
-1100
-1100
-1102
-1104
-1109
-1115
-1122
-1131
-1138
-1144
-1145
-1137
-1123
-1103
-1078
-1042
-993
-936
-875
-815
-760
-704
-650
-603
-563
-527
-500
-481
-483
-513
-561
-617
-691
-772
-857
-945
-1023
-1087
-1115
-1124
-1131
-1136
-1132
-1124
-1116
-1110
-1103
-1094
-1088
-1083
-1079
-1077
-1075
-1073
-1072
-1072
-1073
-1074
-1074
-1074
-1074
-1073
-1072
-1071
-1070
-1070
-1070
-1069
-1069
-1068
-1068
-1067
-1066
-1065
-1064
-1064
-1064
-1064
-1063
-1063
-1062
-1062
-1060
-1058
-1057
-1056
-1055
-1054
-1054
-1054
-1053
-1052
-1050
-1048
-1046
-1045
-1044
-1043
-1043
-1042
-1041
-1039
-1037
-1035
-1033
-1031
-1029
-1028
-1027
-1026
-1024
-1022
-1020
-1017
-1015
-1013
-1011
-1009
-1007
-1004
-1002
-999
-997
-992
-988
-987
-984
-981
-978
-975
-972
-969
-966
-962
-958
-955
-952
-950
-948
-947
-945
-942
-939
-937
-934
-932
-931
-930
-928
-928
-928
-927
-926
-925
-925
-926
-929
-931
-935
-938
-941
-944
-949
-952
-958
-964
-971
-978
-984
-990
-996
-1002
-1007
-1012
-1017
-1022
-1028
-1034
-1039
-1043
-1046
-1050
-1052
-1055
-1058
-1060
-1064
-1066
-1068
-1070
-1072
-1073
-1074
-1074
-1076
-1077
-1078
-1079
-1080
-1080
-1081
-1081
-1082
-1082
-1082
-1082
-1083
-1083
-1084
-1084
-1084
-1083
-1083
-1082
-1082
-1082
-1083
-1084
-1084
-1084
-1084
-1083
-1082
-1082
-1081
-1081
-1081
-1081
-1081
-1082
-1081
-1081
-1080
-1079
-1079
-1078
-1079
-1079
-1079
-1079
-1079
-1079
-1078
-1077
-1077
-1077
-1077
-1078
-1078
-1079
-1078
-1078
-1077
-1077
-1076
-1077
-1078
-1079
-1080
-1080
-1080
-1080
-1079
-1079
-1079
-1080
-1081
-1082
-1082
-1082
-1082
-1082
-1082
-1082
-1083
-1084
-1084
-1086
-1086
-1086
-1086
-1085
-1086
-1085
-1086
-1087
-1088
-1088
-1089
-1089
-1088
-1089
-1088
-1087
-1088
-1089
-1090
-1090
-1091
-1091
-1091
-1091
-1090
-1090
-1090
-1090
-1091
-1091
-1092
-1092
-1092
-1091
-1091
-1092
-1091
-1091
-1092
-1093
-1093
-1093
-1092
-1092
-1092
-1092
-1091
-1092
-1093
-1093
-1093
-1094
-1094
-1093
-1093
-1092
-1093
-1093
-1093
-1093
-1094
-1094
-1093
-1094
-1094
-1094
-1094
-1094
-1094
-1095
-1095
-1095
-1094
-1094
-1093
-1093
-1093
-1095
-1095
-1095
-1095
-1095
-1095
-1095
-1094
-1094
-1094
-1095
-1096
-1096
-1096
-1096
-1096
-1095
-1095
-1095
-1094
-1095
-1095
-1096
-1095
-1095
-1096
-1095
-1094
-1095
-1094
-1095
-1096
-1096
-1096
-1096
-1095
-1095
-1095
-1095
-1095
-1095
-1096
-1096
-1096
-1097
-1096
-1096
-1096
-1095
-1096
-1096
-1096
-1096
-1095
-1095
-1094
-1092
-1091
-1091
-1090
-1091
-1091
-1090
-1088
-1087
-1085
-1084
-1085
-1085
-1084
-1084
-1084
-1084
-1082
-1079
-1076
-1073
-1072
-1072
-1074
-1077
-1079
-1081
-1083
-1085
-1086
-1086
-1087
-1088
-1089
-1089
-1091
-1093
-1095
-1097
-1097
-1098
-1098
-1099
-1100
-1101
-1102
-1102
-1102
-1102
-1102
-1101
-1101
-1102
-1102
-1102
-1103
-1104
-1103
-1103
-1103
-1102
-1102
-1103
-1103
-1104
-1105
-1107
-1110
-1113
-1118
-1124
-1133
-1141
-1148
-1154
-1154
-1144
-1128
-1108
-1081
-1040
-986
-925
-861
-801
-743
-684
-626
-575
-533
-497
-472
-461
-481
-525
-576
-640
-719
-805
-891
-975
-1050
-1106
-1128
-1136
-1138
-1132
-1123
-1117
-1110
-1102
-1094
-1088
-1083
-1080
-1078
-1077
-1077
-1076
-1076
-1076
-1076
-1075
-1075
-1077
-1078
-1077
-1076
-1076
-1075
-1073
-1072
-1073
-1073
-1073
-1072
-1072
-1071
-1070
-1069
-1068
-1066
-1066
-1066
-1065
-1065
-1064
-1063
-1062
-1060
-1058
-1057
-1057
-1056
-1055
-1054
-1053
-1053
-1051
-1049
-1048
-1046
-1046
-1045
-1044
-1043
-1041
-1039
-1036
-1034
-1033
-1031
-1030
-1028
-1027
-1026
-1023
-1021
-1018
-1015
-1013
-1011
-1008
-1007
-1005
-1003
-1000
-997
-993
-989
-985
-983
-980
-977
-974
-971
-967
-963
-960
-956
-954
-951
-948
-945
-943
-940
-939
-936
-934
-932
-929
-927
-926
-925
-923
-923
-922
-921
-920
-920
-921
-922
-924
-927
-932
-935
-939
-943
-948
-953
-958
-964
-970
-977
-983
-990
-996
-1002
-1007
-1013
-1019
-1024
-1030
-1036
-1040
-1044
-1047
-1051
-1054
-1056
-1058
-1061
-1064
-1067
-1069
-1070
-1072
-1073
-1073
-1074
-1075
-1076
-1078
-1079
-1080
-1080
-1080
-1080
-1080
-1079
-1080
-1081
-1081
-1082
-1082
-1082
-1082
-1081
-1081
-1081
-1081
-1081
-1082
-1082
-1082
-1082
-1082
-1081
-1081
-1080
-1079
-1080
-1080
-1080
-1080
-1080
-1079
-1077
-1076
-1076
-1076
-1076
-1076
-1077
-1077
-1077
-1077
-1076
-1074
-1074
-1073
-1073
-1074
-1075
-1075
-1075
-1075
-1075
-1074
-1074
-1073
-1073
-1075
-1076
-1075
-1076
-1076
-1075
-1075
-1075
-1075
-1076
-1078
-1078
-1079
-1079
-1078
-1078
-1078
-1078
-1078
-1079
-1080
-1080
-1080
-1080
-1080
-1080
-1080
-1080
-1081
-1082
-1082
-1083
-1083
-1083
-1083
-1082
-1081
-1081
-1082
-1084
-1084
-1084
-1084
-1085
-1085
-1084
-1084
-1084
-1084
-1084
-1085
-1085
-1085
-1086
-1085
-1084
-1084
-1084
-1084
-1084
-1085
-1085
-1086
-1086
-1085
-1084
-1083
-1083
-1083
-1083
-1084
-1085
-1085
-1085
-1085
-1085
-1085
-1084
-1084
-1085
-1086
-1087
-1086
-1086
-1086
-1085
-1084
-1085
-1084
-1085
-1086
-1086
-1086
-1086
-1085
-1084
-1084
-1084
-1085
-1085
-1086
-1087
-1087
-1087
-1085
-1085
-1084
-1084
-1084
-1084
-1085
-1086
-1086
-1086
-1085
-1084
-1083
-1083
-1083
-1084
-1085
-1086
-1085
-1085
-1085
-1084
-1084
-1084
-1084
-1085
-1085
-1084
-1084
-1084
-1085
-1084
-1083
-1083
-1083
-1083
-1083
-1084
-1084
-1083
-1082
-1082
-1082
-1082
-1082
-1082
-1082
-1082
-1082
-1080
-1080
-1078
-1076
-1074
-1073
-1072
-1072
-1073
-1074
-1073
-1072
-1071
-1069
-1069
-1066
-1063
-1060
-1058
-1057
-1057
-1060
-1061
-1064
-1066
-1068
-1070
-1072
-1074
-1074
-1075
-1075
-1075
-1075
-1076
-1079
-1080
-1082
-1083
-1084
-1084
-1084
-1084
-1085
-1085
-1085
-1086
-1086
-1086
-1086
-1087
-1087
-1086
-1085
-1086
-1086
-1087
-1087
-1087
-1087
-1087
-1087
-1086
-1086
-1087
-1090
-1094
-1099
-1107
-1115
-1121
-1127
-1131
-1129
-1121
-1105
-1085
-1059
-1018
-965
-907
-845
-786
-731
-677
-625
-583
-545
-511
-488
-472
-484
-518
-567
-627
-705
-787
-875
-959
-1032
-1084
-1103
-1111
-1119
-1125
-1122
-1115
-1108
-1102
-1093
-1084
-1076
-1071
-1066
-1064
-1063
-1063
-1063
-1063
-1063
-1062
-1061
-1061
-1061
-1061
-1061
-1061
-1061
-1061
-1060
-1058
-1057
-1056
-1056
-1056
-1056
-1056
-1056
-1055
-1054
-1053
-1051
-1050
-1050
-1049
-1049
-1049
-1047
-1046
-1045
-1044
-1042
-1041
-1040
-1040
-1039
-1038
-1038
-1037
-1035
-1033
-1031
-1030
-1028
-1027
-1027
-1025
-1025
-1023
-1021
-1018
-1016
-1014
-1013
-1012
-1010
-1008
-1006
-1004
-1001
-998
-996
-993
-991
-989
-987
-985
-982
-979
-975
-971
-968
-965
-962
-960
-957
-954
-951
-948
-945
-942
-938
-935
-933
-932
-930
-929
-928
-926
-923
-921
-920
-919
-918
-918
-918
-918
-919
-920
-921
-922
-924
-927
-932
-936
-941
-947
-952
-957
-963
-968
-973
-980
-986
-992
-998
-1004
-1010
-1016
-1020
-1024
-1028
-1032
-1037
-1041
-1045
-1049
-1053
-1055
-1057
-1058
-1060
-1062
-1063
-1066
-1067
-1069
-1070
-1070
-1071
-1072
-1072
-1073
-1073
-1074
-1076
-1077
-1077
-1077
-1077
-1077
-1076
-1076
-1076
-1077
-1078
-1079
-1079
-1079
-1078
-1076
-1076
-1076
-1076
-1076
-1077
-1078
-1077
-1076
-1076
-1075
-1074
-1074
-1074
-1074
-1074
-1073
-1073
-1072
-1072
-1071
-1071
-1071
-1071
-1071
-1072
-1072
-1072
-1072
-1071
-1070
-1071
-1071
-1071
-1072
-1072
-1072
-1073
-1072
-1072
-1072
-1072
-1072
-1073
-1074
-1074
-1075
-1076
-1075
-1075
-1075
-1075
-1076
-1077
-1077
-1078
-1078
-1078
-1078
-1078
-1078
-1078
-1079
-1080
-1080
-1081
-1082
-1082
-1082
-1082
-1082
-1082
-1082
-1083
-1084
-1084
-1084
-1085
-1085
-1085
-1084
-1085
-1084
-1085
-1086
-1087
-1086
-1087
-1087
-1086
-1085
-1085
-1086
-1086
-1088
-1088
-1088
-1088
-1088
-1087
-1087
-1087
-1088
-1088
-1088
-1089
-1089
-1089
-1089
-1088
-1088
-1088
-1088
-1089
-1089
-1090
-1090
-1090
-1089
-1088
-1088
-1088
-1088
-1089
-1090
-1090
-1091
-1091
-1090
-1089
-1089
-1089
-1090
-1090
-1091
-1092
-1092
-1091
-1090
-1089
-1090
-1090
-1091
-1091
-1091
-1092
-1092
-1092
-1091
-1091
-1090
-1090
-1091
-1091
-1092
-1092
-1092
-1092
-1092
-1091
-1090
-1091
-1092
-1092
-1092
-1091
-1091
-1093
-1092
-1091
-1091
-1092
-1092
-1092
-1093
-1093
-1093
-1092
-1092
-1091
-1091
-1091
-1092
-1093
-1093
-1093
-1093
-1093
-1092
-1092
-1091
-1092
-1093
-1093
-1093
-1093
-1093
-1093
-1092
-1092
-1091
-1091
-1092
-1092
-1092
-1093
-1093
-1091
-1089
-1089
-1088
-1088
-1088
-1087
-1086
-1084
-1083
-1081
-1081
-1081
-1081
-1081
-1081
-1082
-1082
-1079
-1076
-1073
-1071
-1069
-1069
-1071
-1074
-1076
-1078
-1080
-1082
-1083
-1084
-1085
-1086
-1086
-1087
-1089
-1090
-1093
-1094
-1095
-1095
-1095
-1095
-1096
-1097
-1098
-1099
-1099
-1099
-1099
-1099
-1099
-1099
-1099
-1100
-1101
-1101
-1101
-1101
-1100
-1100
-1100
-1100
-1101
-1102
-1102
-1103
-1105
-1108
-1112
-1118
-1126
-1134
-1142
-1148
-1151
-1146
-1133
-1113
-1091
-1059
-1011
-953
-891
-828
-770
-712
-653
-596
-552
-514
-483
-463
-466
-499
-547
-601
-671
-752
-837
-924
-1004
-1072
-1114
-1128
-1134
-1133
-1125
-1118
-1111
-1104
-1096
-1088
-1084
-1079
-1077
-1075
-1074
-1073
-1073
-1074
-1074
-1074
-1074
-1075
-1075
-1075
-1074
-1073
-1072
-1071
-1071
-1070
-1070
-1070
-1070
-1069
-1069
-1068
-1067
-1066
-1065
-1064
-1064
-1064
-1063
-1063
-1061
-1060
-1058
-1057
-1056
-1055
-1055
-1054
-1053
-1053
-1051
-1050
-1048
-1046
-1045
-1044
-1043
-1043
-1042
-1040
-1038
-1037
-1034
-1032
-1031
-1029
-1028
-1027
-1026
-1023
-1021
-1019
-1016
-1013
-1011
-1009
-1007
-1005
-1003
-1000
-997
-994
-990
-987
-983
-980
-978
-975
-971
-968
-965
-961
-957
-953
-950
-948
-945
-942
-940
-938
-935
-932
-929
-927
-925
-924
-923
-921
-920
-920
-918
-918
-917
-917
-918
-920
-922
-925
-929
-933
-937
-941
-946
-951
-957
-963
-970
-977
-984
-990
-996
-1001
-1007
-1013
-1019
-1024
-1030
-1036
-1041
-1044
-1048
-1051
-1054
-1057
-1060
-1062
-1065
-1068
-1070
-1072
-1073
-1074
-1075
-1076
-1076
-1077
-1079
-1080
-1081
-1081
-1081
-1081
-1081
-1082
-1082
-1083
-1084
-1084
-1084
-1084
-1084
-1083
-1083
-1083
-1083
-1083
-1083
-1084
-1084
-1084
-1084
-1083
-1082
-1082
-1082
-1082
-1083
-1082
-1082
-1082
-1080
-1080
-1079
-1078
-1078
-1079
-1079
-1080
-1079
-1079
-1078
-1077
-1077
-1076
-1077
-1077
-1077
-1077
-1078
-1077
-1077
-1077
-1076
-1076
-1076
-1077
-1078
-1079
-1079
-1079
-1079
-1078
-1078
-1078
-1078
-1079
-1080
-1081
-1081
-1081
-1081
-1081
-1081
-1081
-1082
-1082
-1083
-1083
-1084
-1084
-1084
-1084
-1084
-1085
-1086
-1086
-1086
-1087
-1087
-1087
-1087
-1086
-1086
-1086
-1086
-1087
-1088
-1088
-1088
-1088
-1088
-1087
-1087
-1087
-1088
-1088
-1088
-1089
-1090
-1090
-1089
-1089
-1088
-1089
-1089
-1089
-1090
-1091
-1091
-1091
-1090
-1090
-1089
-1089
-1089
-1091
-1091
-1091
-1091
-1091
-1091
-1090
-1089
-1090
-1091
-1091
-1092
-1092
-1092
-1092
-1091
-1090
-1090
-1090
-1091
-1091
-1092
-1092
-1092
-1092
-1091
-1091
-1090
-1091
-1091
-1091
-1092
-1092
-1092
-1092
-1092
-1090
-1090
-1090
-1090
-1090
-1091
-1091
-1091
-1091
-1091
-1090
-1091
-1091
-1092
-1092
-1092
-1092
-1092
-1092
-1091
-1090
-1091
-1091
-1092
-1091
-1092
-1092
-1092
-1092
-1091
-1090
-1090
-1090
-1091
-1092
-1091
-1091
-1091
-1091
-1090
-1090
-1089
-1090
-1090
-1090
-1091
-1092
-1092
-1091
-1090
-1089
-1090
-1091
-1092
-1091
-1092
-1091
-1091
-1091
-1090
-1090
-1090
-1090
-1091
-1091
-1091
-1091
-1091
-1091
-1090
-1090
-1089
-1089
-1090
-1091
-1091
-1091
-1091
-1090
-1090
-1089
-1089
-1090
-1090
-1091
-1091
-1091
-1091
-1090
-1089
-1089
-1089
-1089
-1090
-1090
-1090
-1090
-1089
-1088
-1088
-1087
-1087
-1086
-1086
-1086
-1086
-1084
-1081
-1079
-1078
-1077
-1077
-1077
-1078
-1079
-1080
-1078
-1076
-1074
-1071
-1068
-1066
-1066
-1068
-1070
-1073
-1074
-1076
-1079
-1080
-1081
-1082
-1082
-1083
-1084
-1085
-1086
-1088
-1089
-1089
-1090
-1091
-1091
-1092
-1093
-1093
-1093
-1093
-1092
-1093
-1093
-1094
-1095
-1095
-1095
-1095
-1095
-1095
-1094
-1093
-1093
-1094
-1094
-1095
-1096
-1096
-1096
-1098
-1100
-1103
-1109
-1118
-1127
-1134
-1139
-1141
-1136
-1123
-1104
-1082
-1050
-1003
-948
-888
-827
-770
-714
-656
-602
-559
-521
-491
-471
-469
-499
-544
-596
-663
-742
-826
-916
-995
-1065
-1106
-1120
-1127
-1131
-1127
-1118
-1110
-1105
-1097
-1088
-1082
-1077
-1073
-1071
-1069
-1068
-1067
-1067
-1068
-1069
-1068
-1068
-1068
-1067
-1067
-1066
-1065
-1065
-1065
-1065
-1065
-1065
-1064
-1063
-1063
-1061
-1059
-1059
-1059
-1059
-1058
-1058
-1057
-1056
-1054
-1053
-1052
-1051
-1051
-1050
-1049
-1049
-1048
-1047
-1046
-1044
-1042
-1041
-1040
-1040
-1039
-1038
-1037
-1035
-1033
-1031
-1029
-1028
-1026
-1025
-1025
-1023
-1020
-1019
-1016
-1014
-1012
-1010
-1008
-1006
-1004
-1002
-999
-996
-993
-990
-987
-984
-981
-979
-976
-973
-970
-966
-962
-958
-955
-952
-949
-946
-944
-941
-938
-935
-933
-930
-928
-926
-925
-923
-922
-921
-919
-918
-916
-915
-915
-915
-916
-917
-919
-921
-924
-926
-930
-934
-938
-943
-949
-955
-962
-968
-974
-980
-985
-991
-998
-1004
-1010
-1016
-1022
-1027
-1032
-1035
-1038
-1042
-1045
-1049
-1053
-1056
-1058
-1060
-1063
-1065
-1066
-1067
-1068
-1070
-1071
-1072
-1074
-1074
-1075
-1075
-1075
-1076
-1076
-1077
-1078
-1079
-1079
-1080
-1079
-1078
-1078
-1077
-1078
-1078
-1078
-1079
-1079
-1080
-1080
-1079
-1078
-1078
-1078
-1078
-1078
-1078
-1078
-1077
-1077
-1077
-1077
-1075
-1075
-1075
-1076
-1076
-1075
-1075
-1074
-1073
-1073
-1073
-1073
-1074
-1075
-1075
-1075
-1075
-1074
-1074
-1073
-1074
-1074
-1075
-1075
-1076
-1077
-1076
-1076
-1075
-1075
-1075
-1075
-1076
-1077
-1077
-1078
-1078
-1078
-1078
-1078
-1078
-1079
-1080
-1080
-1080
-1081
-1081
-1081
-1082
-1082
-1082
-1082
-1083
-1083
-1084
-1085
-1085
-1085
-1085
-1084
-1084
-1085
-1085
-1086
-1087
-1087
-1087
-1087
-1086
-1086
-1085
-1086
-1088
-1089
-1090
-1089
-1089
-1089
-1089
-1087
-1088
-1088
-1089
-1091
-1091
-1090
-1090
-1090
-1089
-1089
-1089
-1089
-1090
-1090
-1090
-1091
-1091
-1090
-1089
-1089
-1091
-1091
-1091
-1092
-1092
-1093
-1092
-1091
-1091
-1091
-1090
-1091
-1091
-1092
-1093
-1092
-1092
-1091
-1092
-1091
-1091
-1092
-1092
-1093
-1093
-1093
-1093
-1092
-1091
-1092
-1092
-1093
-1093
-1094
-1094
-1093
-1093
-1092
-1092
-1092
-1092
-1093
-1093
-1093
-1094
-1093
-1094
-1093
-1093
-1092
-1092
-1093
-1093
-1093
-1094
-1094
-1094
-1093
-1093
-1092
-1092
-1093
-1094
-1094
-1094
-1094
-1093
-1093
-1093
-1093
-1093
-1093
-1094
-1094
-1094
-1094
-1094
-1094
-1093
-1094
-1094
-1094
-1094
-1095
-1095
-1095
-1095
-1094
-1093
-1093
-1094
-1094
-1095
-1095
-1095
-1094
-1094
-1094
-1093
-1093
-1093
-1093
-1093
-1094
-1093
-1092
-1091
-1090
-1089
-1089
-1089
-1088
-1086
-1085
-1083
-1083
-1083
-1083
-1082
-1082
-1082
-1083
-1082
-1080
-1077
-1074
-1072
-1071
-1071
-1074
-1076
-1079
-1080
-1082
-1085
-1086
-1086
-1086
-1086
-1086
-1088
-1090
-1092
-1094
-1095
-1096
-1096
-1097
-1097
-1097
-1098
-1099
-1100
-1100
-1100
-1100
-1100
-1100
-1100
-1100
-1100
-1101
-1101
-1101
-1101
-1101
-1100
-1100
-1100
-1101
-1101
-1102
-1104
-1106
-1110
-1114
-1121
-1129
-1136
-1142
-1148
-1149
-1141
-1127
-1106
-1083
-1045
-992
-933
-869
-808
-750
-692
-634
-582
-540
-504
-477
-461
-473
-512
-561
-620
-694
-780
-865
-951
-1027
-1090
-1119
-1129
-1133
-1130
-1121
-1114
-1108
-1101
-1092
-1085
-1080
-1076
-1074
-1074
-1074
-1074
-1074
-1073
-1073
-1073
-1073
-1073
-1073
-1073
-1073
-1072
-1071
-1070
-1069
-1068
-1068
-1069
-1068
-1067
-1067
-1066
-1065
-1064
-1063
-1062
-1061
-1061
-1060
-1060
-1059
-1059
-1057
-1055
-1054
-1053
-1052
-1052
-1051
-1050
-1049
-1048
-1047
-1045
-1043
-1042
-1041
-1040
-1039
-1038
-1036
-1035
-1033
-1030
-1029
-1027
-1025
-1023
-1022
-1020
-1018
-1016
-1013
-1011
-1008
-1006
-1004
-1002
-1000
-998
-995
-991
-988
-984
-980
-977
-974
-972
-968
-965
-961
-958
-953
-950
-946
-943
-940
-938
-936
-933
-931
-928
-925
-921
-920
-918
-917
-915
-915
-913
-913
-912
-911
-910
-911
-912
-914
-917
-920
-924
-928
-932
-937
-942
-948
-954
-961
-967
-974
-981
-987
-993
-999
-1004
-1010
-1016
-1022
-1027
-1033
-1038
-1042
-1045
-1048
-1051
-1054
-1056
-1059
-1062
-1065
-1067
-1068
-1070
-1070
-1071
-1072
-1073
-1074
-1075
-1076
-1077
-1077
-1077
-1076
-1076
-1077
-1078
-1078
-1078
-1079
-1080
-1080
-1079
-1079
-1078
-1078
-1078
-1078
-1078
-1079
-1079
-1079
-1078
-1077
-1077
-1077
-1077
-1077
-1077
-1077
-1077
-1076
-1076
-1075
-1074
-1074
-1075
-1075
-1075
-1076
-1075
-1075
-1074
-1073
-1072
-1072
-1073
-1073
-1074
-1075
-1075
-1075
-1075
-1074
-1073
-1073
-1074
-1074
-1075
-1076
-1076
-1076
-1075
-1075
-1075
-1075
-1076
-1076
-1077
-1078
-1078
-1078
-1077
-1078
-1077
-1078
-1079
-1080
-1080
-1081
-1081
-1082
-1081
-1081
-1081
-1081
-1082
-1082
-1083
-1083
-1083
-1083
-1084
-1083
-1082
-1083
-1083
-1084
-1085
-1085
-1085
-1085
-1085
-1084
-1084
-1085
-1085
-1086
-1087
-1087
-1087
-1087
-1086
-1085
-1085
-1085
-1086
-1087
-1088
-1088
-1088
-1088
-1088
-1087
-1087
-1087
-1087
-1088
-1089
-1089
-1089
-1089
-1088
-1087
-1087
-1087
-1087
-1087
-1088
-1089
-1088
-1088
-1088
-1087
-1087
-1087
-1088
-1088
-1089
-1089
-1089
-1089
-1088
-1088
-1088
-1088
-1089
-1089
-1090
-1090
-1090
-1089
-1088
-1088
-1088
-1088
-1089
-1089
-1090
-1090
-1090
-1089
-1089
-1088
-1088
-1088
-1088
-1089
-1090
-1090
-1089
-1089
-1088
-1089
-1089
-1089
-1090
-1090
-1090
-1090
-1090
-1089
-1089
-1088
-1088
-1089
-1090
-1090
-1090
-1090
-1090
-1090
-1090
-1089
-1089
-1089
-1090
-1090
-1091
-1091
-1091
-1090
-1090
-1089
-1089
-1089
-1090
-1091
-1091
-1091
-1090
-1090
-1090
-1089
-1089
-1089
-1090
-1091
-1091
-1091
-1091
-1090
-1089
-1088
-1088
-1088
-1088
-1089
-1088
-1088
-1088
-1087
-1085
-1084
-1084
-1083
-1081
-1080
-1079
-1079
-1080
-1079
-1077
-1077
-1077
-1077
-1075
-1072
-1070
-1068
-1066
-1066
-1068
-1069
-1071
-1074
-1076
-1077
-1079
-1081
-1081
-1081
-1082
-1083
-1083
-1084
-1087
-1090
-1091
-1091
-1092
-1092
-1092
-1092
-1093
-1094
-1095
-1095
-1096
-1096
-1096
-1096
-1095
-1094
-1094
-1095
-1095
-1096
-1096
-1096
-1096
-1096
-1096
-1096
-1096
-1098
-1101
-1104
-1110
-1117
-1125
-1131
-1137
-1141
-1141
-1134
-1119
-1100
-1075
-1036
-984
-924
-861
-800
-743
-687
-631
-582
-542
-507
-481
-466
-477
-517
-566
-626
-701
-784
-871
-956
-1030
-1090
-1116
-1125
-1130
-1130
-1123
-1115
-1109
-1103
-1092
-1083
-1078
-1074
-1071
-1069
-1069
-1069
-1070
-1070
-1070
-1069
-1069
-1068
-1068
-1068
-1069
-1069
-1069
-1067
-1066
-1065
-1064
-1064
-1065
-1064
-1064
-1063
-1062
-1062
-1061
-1060
-1058
-1057
-1057
-1056
-1056
-1055
-1055
-1053
-1052
-1050
-1049
-1048
-1047
-1047
-1046
-1045
-1045
-1043
-1041
-1040
-1038
-1037
-1036
-1036
-1035
-1033
-1032
-1030
-1028
-1025
-1023
-1022
-1021
-1019
-1017
-1015
-1014
-1012
-1009
-1005
-1003
-1001
-999
-997
-995
-992
-989
-985
-982
-978
-975
-971
-968
-965
-963
-960
-956
-953
-950
-946
-942
-939
-937
-935
-933
-931
-928
-926
-923
-920
-919
-917
-917
-917
-916
-915
-915
-914
-914
-914
-916
-918
-920
-924
-927
-932
-937
-942
-947
-952
-958
-965
-971
-977
-984
-990
-996
-1002
-1007
-1012
-1018
-1023
-1029
-1034
-1038
-1042
-1045
-1049
-1051
-1053
-1056
-1059
-1061
-1063
-1066
-1067
-1068
-1069
-1069
-1069
-1070
-1072
-1073
-1074
-1075
-1075
-1075
-1075
-1075
-1075
-1075
-1076
-1077
-1077
-1078
-1078
-1078
-1077
-1076
-1076
-1076
-1076
-1076
-1077
-1077
-1077
-1076
-1076
-1075
-1074
-1075
-1075
-1075
-1076
-1076
-1075
-1075
-1074
-1073
-1073
-1073
-1073
-1074
-1075
-1075
-1074
-1074
-1073
-1073
-1073
-1073
-1074
-1074
-1074
-1075
-1075
-1075
-1075
-1074
-1075
-1075
-1075
-1075
-1076
-1077
-1077
-1077
-1076
-1076
-1077
-1077
-1078
-1078
-1079
-1081
-1081
-1081
-1081
-1080
-1081
-1081
-1081
-1082
-1083
-1084
-1084
-1084
-1084
-1083
-1083
-1083
-1085
-1085
-1086
-1086
-1086
-1086
-1086
-1086
-1086
-1086
-1087
-1087
-1088
-1088
-1088
-1088
-1087
-1087
-1087
-1087
-1088
-1089
-1089
-1090
-1090
-1090
-1090
-1089
-1089
-1089
-1089
-1090
-1091
-1091
-1091
-1091
-1090
-1090
-1089
-1090
-1091
-1091
-1092
-1092
-1091
-1091
-1091
-1091
-1091
-1091
-1092
-1093
-1093
-1093
-1093
-1092
-1092
-1092
-1092
-1093
-1093
-1093
-1094
-1094
-1094
-1094
-1093
-1093
-1093
-1093
-1094
-1094
-1095
-1095
-1094
-1094
-1093
-1093
-1093
-1094
-1094
-1095
-1095
-1095
-1095
-1094
-1094
-1093
-1094
-1095
-1095
-1096
-1096
-1096
-1095
-1094
-1094
-1094
-1094
-1095
-1096
-1096
-1095
-1095
-1095
-1095
-1094
-1095
-1095
-1096
-1096
-1097
-1096
-1096
-1096
-1096
-1094
-1094
-1094
-1094
-1094
-1094
-1094
-1094
-1093
-1092
-1091
-1089
-1088
-1087
-1086
-1086
-1086
-1087
-1087
-1085
-1085
-1085
-1083
-1081
-1078
-1076
-1074
-1073
-1073
-1075
-1076
-1078
-1080
-1083
-1085
-1087
-1088
-1089
-1089
-1090
-1090
-1091
-1093
-1096
-1098
-1099
-1100
-1100
-1101
-1101
-1101
-1102
-1102
-1103
-1103
-1104
-1104
-1104
-1105
-1104
-1104
-1103
-1104
-1105
-1104
-1105
-1105
-1105
-1105
-1105
-1104
-1104
-1106
-1109
-1112
-1118
-1125
-1133
-1139
-1144
-1148
-1147
-1138
-1123
-1103
-1078
-1039
-987
-927
-863
-803
-747
-691
-637
-591
-551
-517
-492
-478
-491
-529
-580
-640
-716
-800
-887
-971
-1045
-1102
-1124
-1131
-1137
-1138
-1132
-1125
-1119
-1113
-1103
-1095
-1089
-1083
-1080
-1079
-1078
-1079
-1080
-1080
-1079
-1079
-1079
-1078
-1078
-1078
-1078
-1078
-1078
-1077
-1077
-1076
-1075
-1074
-1073
-1073
-1073
-1073
-1073
-1072
-1071
-1069
-1068
-1067
-1067
-1067
-1067
-1066
-1065
-1064
-1062
-1061
-1060
-1059
-1058
-1057
-1057
-1057
-1056
-1054
-1052
-1050
-1049
-1047
-1046
-1046
-1044
-1043
-1042
-1040
-1038
-1036
-1034
-1032
-1030
-1028
-1028
-1026
-1024
-1022
-1019
-1016
-1013
-1011
-1009
-1006
-1004
-1002
-999
-996
-992
-988
-984
-981
-978
-975
-972
-970
-967
-964
-960
-956
-953
-950
-948
-945
-944
-942
-940
-938
-935
-933
-931
-930
-929
-928
-927
-927
-927
-927
-927
-927
-928
-931
-934
-939
-943
-947
-951
-957
-963
-967
-973
-978
-985
-991
-998
-1005
-1011
-1016
-1022
-1027
-1032
-1036
-1041
-1046
-1051
-1055
-1058
-1061
-1064
-1067
-1068
-1070
-1073
-1075
-1077
-1079
-1080
-1081
-1081
-1082
-1082
-1082
-1084
-1085
-1086
-1087
-1087
-1088
-1087
-1086
-1086
-1087
-1088
-1088
-1088
-1089
-1089
-1088
-1087
-1087
-1086
-1087
-1088
-1088
-1087
-1088
-1088
-1087
-1087
-1086
-1085
-1086
-1086
-1086
-1087
-1088
-1087
-1086
-1085
-1084
-1085
-1084
-1084
-1085
-1085
-1086
-1086
-1086
-1085
-1084
-1085
-1086
-1086
-1087
-1087
-1087
-1087
-1087
-1087
-1086
-1086
-1087
-1087
-1088
-1089
-1089
-1089
-1090
-1089
-1089
-1089
-1089
-1090
-1091
-1092
-1093
-1092
-1093
-1092
-1092
-1092
-1093
-1094
-1095
-1095
-1096
-1096
-1096
-1095
-1095
-1095
-1096
-1097
-1097
-1098
-1098
-1098
-1098
-1098
-1098
-1097
-1098
-1099
-1099
-1100
-1100
-1100
-1100
-1099
-1099
-1099
-1100
-1101
-1101
-1102
-1101
-1101
-1101
-1100
-1100
-1100
-1101
-1101
-1102
-1102
-1102
-1103
-1102
-1102
-1101
-1102
-1102
-1103
-1104
-1104
-1104
-1104
-1103
-1103
-1102
-1103
-1103
-1103
-1104
-1104
-1104
-1104
-1104
-1103
-1103
-1103
-1103
-1104
-1105
-1105
-1105
-1105
-1104
-1104
-1104
-1104
-1104
-1105
-1106
-1106
-1106
-1105
-1105
-1105
-1105
-1105
-1105
-1106
-1106
-1106
-1106
-1106
-1106
-1105
-1105
-1105
-1106
-1106
-1107
-1107
-1107
-1107
-1106
-1106
-1106
-1106
-1106
-1106
-1107
-1107
-1107
-1107
-1106
-1105
-1105
-1106
-1107
-1107
-1107
-1108
-1108
-1107
-1107
-1107
-1107
-1107
-1108
-1108
-1108
-1108
-1109
-1109
-1108
-1107
-1107
-1107
-1107
-1107
-1107
-1106
-1105
-1104
-1103
-1102
-1102
-1101
-1099
-1097
-1098
-1098
-1097
-1097
-1097
-1096
-1095
-1095
-1094
-1092
-1090
-1087
-1085
-1085
-1086
-1087
-1089
-1092
-1094
-1097
-1099
-1100
-1101
-1101
-1101
-1101
-1102
-1104
-1106
-1109
-1110
-1111
-1112
-1113
-1112
-1112
-1113
-1113
-1114
-1115
-1115
-1116
-1116
-1115
-1115
-1114
-1114
-1115
-1116
-1116
-1116
-1116
-1116
-1116
-1116
-1116
-1116
-1117
-1120
-1124
-1130
-1136
-1144
-1151
-1157
-1162
-1163
-1155
-1141
-1122
-1098
-1060
-1008
-947
-883
-821
-763
-706
-650
-599
-558
-522
-496
-482
-492
-530
-580
-640
-715
-801
-888
-974
-1050
-1111
-1138
-1146
-1150
-1146
-1139
-1132
-1126
-1120
-1110
-1103
-1097
-1092
-1090
-1089
-1089
-1090
-1091
-1091
-1091
-1090
-1090
-1089
-1089
-1089
-1089
-1089
-1089
-1089
-1088
-1087
-1086
-1085
-1085
-1084
-1084
-1084
-1083
-1082
-1081
-1080
-1079
-1078
-1078
-1077
-1076
-1076
-1075
-1074
-1073
-1070
-1069
-1068
-1068
-1067
-1067
-1066
-1065
-1063
-1061
-1059
-1058
-1056
-1056
-1055
-1055
-1053
-1051
-1050
-1048
-1047
-1044
-1042
-1041
-1039
-1037
-1035
-1033
-1031
-1029
-1026
-1023
-1021
-1019
-1017
-1015
-1012
-1009
-1006
-1002
-998
-995
-992
-989
-985
-983
-979
-976
-973
-968
-965
-962
-960
-958
-955
-953
-950
-948
-947
-944
-942
-940
-938
-937
-937
-936
-935
-935
-934
-934
-933
-934
-936
-939
-942
-946
-950
-955
-960
-964
-969
-974
-980
-987
-993
-999
-1006
-1012
-1018
-1023
-1028
-1033
-1038
-1044
-1049
-1053
-1058
-1061
-1064
-1067
-1070
-1072
-1074
-1077
-1079
-1081
-1083
-1085
-1085
-1085
-1086
-1086
-1087
-1088
-1090
-1091
-1092
-1092
-1091
-1090
-1091
-1090
-1091
-1092
-1092
-1093
-1093
-1093
-1092
-1092
-1091
-1091
-1091
-1091
-1091
-1092
-1092
-1091
-1090
-1090
-1089
-1089
-1090
-1090
-1090
-1090
-1090
-1090
-1089
-1089
-1088
-1088
-1089
-1089
-1090
-1091
-1090
-1090
-1090
-1090
-1089
-1089
-1090
-1090
-1090
-1091
-1091
-1091
-1090
-1090
-1090
-1090
-1091
-1092
-1092
-1093
-1093
-1093
-1093
-1092
-1092
-1092
-1093
-1095
-1095
-1095
-1095
-1096
-1096
-1095
-1095
-1095
-1095
-1096
-1097
-1097
-1098
-1098
-1098
-1097
-1097
-1097
-1098
-1099
-1099
-1100
-1100
-1100
-1100
-1099
-1099
-1099
-1100
-1100
-1101
-1102
-1102
-1102
-1102
-1101
-1101
-1101
-1101
-1101
-1102
-1103
-1102
-1102
-1102
-1102
-1101
-1102
-1102
-1103
-1103
-1103
-1103
-1103
-1103
-1102
-1102
-1103
-1103
-1104
-1104
-1104
-1105
-1104
-1104
-1103
-1103
-1104
-1104
-1105
-1105
-1105
-1105
-1104
-1105
-1104
-1103
-1103
-1104
-1105
-1106
-1105
-1105
-1106
-1105
-1104
-1105
-1105
-1106
-1106
-1106
-1106
-1106
-1105
-1105
-1104
-1104
-1104
-1105
-1105
-1105
-1106
-1106
-1106
-1105
-1105
-1105
-1106
-1106
-1106
-1107
-1107
-1106
-1106
-1106
-1105
-1105
-1105
-1105
-1105
-1106
-1107
-1107
-1106
-1105
-1105
-1105
-1105
-1106
-1105
-1105
-1104
-1104
-1104
-1102
-1101
-1101
-1100
-1098
-1097
-1097
-1096
-1096
-1096
-1095
-1094
-1094
-1094
-1093
-1091
-1088
-1086
-1083
-1082
-1082
-1085
-1087
-1089
-1091
-1093
-1095
-1096
-1097
-1098
-1098
-1098
-1099
-1100
-1103
-1106
-1108
-1109
-1110
-1110
-1109
-1109
-1109
-1110
-1111
-1112
-1113
-1113
-1113
-1113
-1112
-1112
-1111
-1112
-1113
-1113
-1113
-1113
-1112
-1113
-1113
-1113
-1112
-1114
-1117
-1120
-1125
-1131
-1138
-1146
-1151
-1155
-1157
-1151
-1139
-1120
-1097
-1062
-1013
-956
-895
-833
-777
-722
-668
-621
-582
-545
-518
-498
-498
-527
-574
-631
-701
-781
-866
-951
-1026
-1090
-1122
-1133
-1141
-1149
-1149
-1142
-1135
-1128
-1120
-1109
-1101
-1096
-1092
-1089
-1087
-1086
-1087
-1087
-1087
-1087
-1087
-1086
-1086
-1086
-1085
-1085
-1084
-1084
-1084
-1083
-1081
-1080
-1080
-1081
-1081
-1080
-1080
-1079
-1078
-1077
-1075
-1074
-1074
-1073
-1072
-1072
-1071
-1070
-1068
-1066
-1065
-1065
-1064
-1064
-1063
-1063
-1062
-1061
-1059
-1057
-1055
-1053
-1052
-1052
-1051
-1050
-1048
-1046
-1045
-1042
-1040
-1039
-1037
-1036
-1035
-1033
-1031
-1029
-1026
-1023
-1021
-1019
-1017
-1016
-1014
-1012
-1009
-1005
-1001
-997
-994
-992
-989
-987
-984
-981
-978
-974
-971
-967
-964
-962
-959
-957
-955
-953
-951
-949
-946
-944
-942
-940
-939
-939
-938
-938
-938
-937
-937
-936
-937
-939
-941
-944
-949
-952
-956
-961
-965
-969
-974
-980
-987
-994
-1001
-1007
-1012
-1018
-1023
-1027
-1032
-1038
-1042
-1047
-1052
-1057
-1060
-1062
-1065
-1068
-1071
-1073
-1076
-1078
-1079
-1081
-1082
-1083
-1083
-1084
-1085
-1086
-1087
-1088
-1089
-1089
-1090
-1090
-1089
-1089
-1089
-1089
-1089
-1090
-1090
-1090
-1090
-1089
-1089
-1089
-1088
-1089
-1090
-1090
-1091
-1091
-1090
-1089
-1088
-1088
-1088
-1088
-1088
-1088
-1089
-1089
-1088
-1088
-1087
-1087
-1086
-1087
-1087
-1087
-1088
-1089
-1088
-1087
-1087
-1087
-1088
-1088
-1089
-1089
-1090
-1090
-1089
-1089
-1089
-1088
-1088
-1090
-1091
-1091
-1091
-1092
-1092
-1092
-1091
-1091
-1091
-1092
-1093
-1093
-1094
-1094
-1094
-1094
-1094
-1094
-1095
-1096
-1097
-1097
-1098
-1098
-1098
-1098
-1098
-1097
-1097
-1098
-1099
-1099
-1099
-1100
-1100
-1100
-1100
-1099
-1100
-1101
-1101
-1101
-1101
-1102
-1101
-1101
-1100
-1100
-1100
-1101
-1102
-1102
-1102
-1102
-1102
-1102
-1101
-1101
-1102
-1102
-1103
-1104
-1104
-1104
-1103
-1102
-1103
-1102
-1103
-1103
-1104
-1104
-1105
-1104
-1104
-1104
-1104
-1104
-1104
-1104
-1104
-1105
-1105
-1105
-1105
-1104
-1103
-1103
-1104
-1104
-1105
-1105
-1105
-1105
-1105
-1104
-1104
-1105
-1105
-1105
-1106
-1106
-1106
-1106
-1105
-1104
-1104
-1104
-1105
-1106
-1106
-1107
-1106
-1106
-1106
-1105
-1105
-1104
-1104
-1105
-1105
-1104
-1103
-1103
-1102
-1101
-1100
-1099
-1099
-1097
-1096
-1095
-1095
-1095
-1095
-1094
-1094
-1094
-1094
-1092
-1089
-1086
-1084
-1083
-1082
-1082
-1084
-1086
-1089
-1092
-1094
-1096
-1097
-1098
-1098
-1098
-1098
-1099
-1101
-1104
-1106
-1107
-1109
-1109
-1109
-1109
-1109
-1110
-1111
-1112
-1112
-1112
-1112
-1113
-1112
-1112
-1111
-1111
-1112
-1113
-1113
-1114
-1113
-1113
-1113
-1112
-1113
-1112
-1114
-1117
-1120
-1125
-1132
-1140
-1147
-1152
-1157
-1156
-1149
-1135
-1115
-1090
-1051
-1001
-941
-878
-816
-760
-704
-651
-607
-568
-533
-508
-491
-496
-529
-578
-637
-711
-793
-880
-965
-1040
-1101
-1126
-1134
-1141
-1146
-1143
-1138
-1131
-1125
-1117
-1107
-1100
-1095
-1090
-1089
-1087
-1087
-1088
-1088
-1088
-1087
-1087
-1086
-1086
-1087
-1087
-1086
-1086
-1085
-1085
-1083
-1082
-1082
-1082
-1082
-1081
-1081
-1080
-1079
-1079
-1078
-1076
-1076
-1076
-1076
-1075
-1074
-1074
-1073
-1071
-1069
-1067
-1067
-1067
-1066
-1065
-1064
-1064
-1063
-1061
-1059
-1058
-1056
-1055
-1054
-1053
-1053
-1051
-1049
-1047
-1044
-1043
-1041
-1040
-1039
-1037
-1036
-1034
-1032
-1029
-1026
-1024
-1021
-1019
-1018
-1015
-1012
-1010
-1007
-1004
-1000
-997
-993
-990
-988
-985
-983
-979
-976
-973
-969
-966
-963
-961
-960
-958
-956
-954
-952
-950
-948
-946
-945
-944
-943
-942
-942
-942
-941
-941
-941
-942
-944
-947
-950
-954
-958
-964
-968
-973
-977
-983
-989
-995
-1001
-1008
-1014
-1020
-1025
-1030
-1034
-1040
-1044
-1050
-1054
-1058
-1062
-1066
-1069
-1071
-1074
-1075
-1078
-1081
-1083
-1085
-1086
-1087
-1088
-1088
-1088
-1089
-1090
-1092
-1093
-1093
-1093
-1093
-1093
-1093
-1093
-1093
-1093
-1093
-1094
-1094
-1094
-1094
-1094
-1093
-1093
-1092
-1092
-1093
-1093
-1093
-1094
-1093
-1092
-1092
-1091
-1091
-1091
-1091
-1091
-1091
-1092
-1091
-1091
-1090
-1089
-1089
-1090
-1091
-1091
-1091
-1092
-1092
-1091
-1091
-1091
-1091
-1091
-1092
-1093
-1093
-1094
-1093
-1093
-1092
-1092
-1093
-1094
-1094
-1095
-1095
-1095
-1096
-1096
-1095
-1095
-1096
-1097
-1097
-1098
-1098
-1098
-1099
-1098
-1098
-1098
-1099
-1099
-1100
-1101
-1101
-1102
-1102
-1101
-1100
-1100
-1101
-1102
-1102
-1103
-1104
-1104
-1104
-1103
-1103
-1103
-1104
-1104
-1105
-1105
-1105
-1105
-1106
-1105
-1105
-1105
-1105
-1106
-1106
-1107
-1107
-1107
-1107
-1107
-1106
-1105
-1106
-1107
-1107
-1107
-1108
-1108
-1107
-1107
-1106
-1107
-1107
-1108
-1108
-1108
-1108
-1109
-1108
-1107
-1107
-1106
-1107
-1108
-1109
-1109
-1109
-1109
-1109
-1108
-1108
-1108
-1108
-1108
-1109
-1110
-1109
-1109
-1109
-1108
-1108
-1108
-1108
-1108
-1109
-1110
-1110
-1110
-1109
-1108
-1108
-1108
-1108
-1108
-1110
-1109
-1110
-1110
-1109
-1109
-1109
-1108
-1109
-1110
-1110
-1110
-1110
-1110
-1110
-1109
-1108
-1108
-1107
-1107
-1107
-1106
-1106
-1105
-1104
-1104
-1102
-1100
-1099
-1099
-1099
-1099
-1099
-1099
-1098
-1098
-1097
-1096
-1093
-1090
-1088
-1087
-1085
-1087
-1089
-1089
-1091
-1093
-1095
-1098
-1100
-1101
-1102
-1103
-1103
-1102
-1104
-1105
-1109
-1111
-1112
-1113
-1114
-1114
-1114
-1114
-1113
-1114
-1115
-1115
-1116
-1116
-1117
-1117
-1116
-1116
-1116
-1116
-1116
-1117
-1117
-1117
-1117
-1117
-1118
-1117
-1119
-1121
-1125
-1130
-1138
-1146
-1155
-1160
-1165
-1165
-1156
-1142
-1123
-1097
-1059
-1006
-944
-878
-814
-755
-696
-638
-588
-547
-512
-487
-471
-482
-520
-571
-633
-710
-796
-885
-970
-1048
-1110
-1136
-1143
-1147
-1144
-1138
-1132
-1126
-1120
-1112
-1104
-1099
-1094
-1090
-1089
-1088
-1090
-1090
-1091
-1091
-1091
-1091
-1090
-1089
-1088
-1089
-1089
-1089
-1089
-1088
-1088
-1087
-1085
-1085
-1084
-1084
-1084
-1084
-1083
-1082
-1082
-1081
-1079
-1078
-1078
-1076
-1076
-1076
-1074
-1073
-1072
-1071
-1070
-1068
-1067
-1066
-1066
-1065
-1064
-1063
-1061
-1060
-1058
-1057
-1056
-1055
-1054
-1053
-1051
-1049
-1047
-1045
-1043
-1040
-1039
-1037
-1035
-1034
-1032
-1030
-1028
-1026
-1022
-1019
-1017
-1015
-1012
-1010
-1007
-1004
-1001
-997
-993
-990
-987
-984
-981
-978
-976
-973
-970
-966
-963
-960
-958
-955
-954
-952
-950
-948
-946
-945
-943
-941
-940
-939
-939
-939
-938
-938
-938
-939
-940
-943
-946
-949
-954
-958
-963
-968
-974
-979
-984
-990
-997
-1003
-1009
-1016
-1022
-1028
-1033
-1037
-1042
-1047
-1052
-1056
-1061
-1065
-1069
-1072
-1075
-1077
-1078
-1080
-1082
-1084
-1086
-1088
-1089
-1091
-1091
-1091
-1090
-1091
-1092
-1093
-1094
-1095
-1094
-1095
-1094
-1094
-1093
-1093
-1093
-1094
-1095
-1095
-1095
-1094
-1094
-1093
-1092
-1092
-1093
-1093
-1094
-1094
-1093
-1093
-1092
-1092
-1091
-1091
-1091
-1092
-1093
-1093
-1093
-1093
-1092
-1092
-1091
-1091
-1092
-1093
-1093
-1094
-1094
-1094
-1093
-1093
-1093
-1093
-1093
-1094
-1095
-1095
-1095
-1095
-1095
-1095
-1095
-1095
-1095
-1096
-1096
-1097
-1098
-1097
-1097
-1097
-1096
-1097
-1098
-1099
-1099
-1100
-1101
-1101
-1100
-1099
-1099
-1100
-1100
-1101
-1103
-1102
-1102
-1103
-1103
-1102
-1102
-1102
-1102
-1104
-1104
-1104
-1104
-1104
-1104
-1104
-1104
-1104
-1105
-1105
-1106
-1106
-1106
-1106
-1105
-1104
-1104
-1105
-1106
-1106
-1106
-1106
-1107
-1107
-1106
-1105
-1105
-1105
-1106
-1106
-1107
-1107
-1107
-1107
-1106
-1106
-1106
-1107
-1107
-1107
-1108
-1108
-1107
-1107
-1107
-1107
-1106
-1106
-1107
-1107
-1109
-1108
-1109
-1108
-1107
-1107
-1107
-1107
-1108
-1109
-1109
-1108
-1109
-1109
-1108
-1107
-1107
-1108
-1108
-1109
-1110
-1109
-1109
-1108
-1108
-1108
-1107
-1107
-1108
-1109
-1110
-1110
-1109
-1109
-1108
-1107
-1107
-1107
-1107
-1107
-1107
-1107
-1106
-1105
-1104
-1103
-1103
-1103
-1102
-1100
-1099
-1099
-1099
-1099
-1097
-1096
-1096
-1096
-1096
-1095
-1092
-1089
-1086
-1084
-1082
-1084
-1087
-1089
-1091
-1094
-1096
-1098
-1099
-1100
-1100
-1100
-1101
-1102
-1104
-1107
-1110
-1110
-1111
-1112
-1112
-1112
-1112
-1114
-1114
-1114
-1115
-1115
-1115
-1115
-1115
-1114
-1114
-1115
-1116
-1116
-1116
-1116
-1115
-1115
-1115
-1115
-1115
-1115
-1117
-1120
-1124
-1129
-1136
-1145
-1151
-1157
-1161
-1158
-1149
-1132
-1111
-1080
-1036
-980
-919
-856
-796
-742
-688
-636
-596
-559
-528
-504
-492
-509
-551
-603
-669
-749
-832
-920
-1000
-1071
-1117
-1133
-1141
-1149
-1152
-1147
-1140
-1134
-1127
-1116
-1107
-1102
-1096
-1093
-1090
-1090
-1091
-1091
-1091
-1090
-1089
-1090
-1089
-1089
-1089
-1089
-1089
-1088
-1087
-1086
-1085
-1085
-1085
-1085
-1084
-1083
-1082
-1081
-1080
-1079
-1079
-1078
-1077
-1076
-1076
-1076
-1075
-1074
-1073
-1071
-1069
-1069
-1069
-1069
-1068
-1067
-1066
-1064
-1063
-1061
-1059
-1058
-1056
-1056
-1055
-1054
-1053
-1051
-1049
-1047
-1045
-1043
-1042
-1041
-1039
-1038
-1036
-1034
-1031
-1029
-1026
-1024
-1023
-1021
-1019
-1017
-1014
-1011
-1007
-1004
-1001
-998
-995
-992
-989
-987
-984
-980
-977
-973
-970
-968
-966
-964
-963
-961
-958
-955
-953
-951
-950
-948
-949
-948
-946
-946
-945
-945
-944
-944
-944
-945
-947
-950
-954
-958
-963
-967
-970
-975
-980
-986
-992
-998
-1005
-1011
-1016
-1022
-1027
-1032
-1037
-1042
-1047
-1052
-1056
-1060
-1063
-1067
-1069
-1072
-1074
-1077
-1080
-1082
-1084
-1086
-1087
-1088
-1088
-1088
-1089
-1090
-1091
-1093
-1094
-1094
-1094
-1093
-1092
-1092
-1093
-1094
-1094
-1095
-1096
-1096
-1095
-1095
-1094
-1094
-1094
-1094
-1094
-1095
-1095
-1095
-1094
-1093
-1093
-1093
-1093
-1093
-1093
-1093
-1093
-1093
-1093
-1092
-1092
-1092
-1092
-1092
-1093
-1093
-1094
-1095
-1095
-1095
-1094
-1093
-1094
-1094
-1095
-1095
-1096
-1096
-1096
-1095
-1095
-1094
-1095
-1096
-1097
-1098
-1098
-1099
-1098
-1098
-1098
-1098
-1099
-1099
-1100
-1101
-1102
-1102
-1102
-1102
-1101
-1102
-1103
-1103
-1103
-1104
-1104
-1105
-1105
-1105
-1105
-1105
-1106
-1106
-1106
-1107
-1108
-1108
-1107
-1107
-1106
-1107
-1108
-1108
-1109
-1109
-1109
-1110
-1109
-1109
-1108
-1109
-1109
-1110
-1110
-1111
-1111
-1111
-1111
-1110
-1110
-1110
-1110
-1111
-1112
-1112
-1112
-1113
-1112
-1111
-1111
-1111
-1111
-1112
-1113
-1113
-1113
-1113
-1113
-1113
-1113
-1113
-1113
-1114
-1114
-1115
-1115
-1115
-1114
-1113
-1113
-1113
-1113
-1114
-1115
-1115
-1115
-1115
-1115
-1114
-1114
-1113
-1113
-1114
-1114
-1115
-1114
-1113
-1112
-1111
-1110
-1110
-1110
-1108
-1106
-1106
-1105
-1105
-1105
-1105
-1103
-1103
-1103
-1103
-1102
-1098
-1095
-1093
-1091
-1090
-1092
-1095
-1097
-1100
-1101
-1104
-1105
-1107
-1108
-1108
-1108
-1109
-1110
-1113
-1115
-1117
-1118
-1120
-1120
-1120
-1120
-1120
-1121
-1122
-1123
-1124
-1124
-1124
-1123
-1123
-1123
-1123
-1124
-1125
-1126
-1125
-1125
-1125
-1125
-1124
-1124
-1125
-1125
-1127
-1129
-1133
-1139
-1146
-1154
-1161
-1166
-1172
-1171
-1163
-1148
-1127
-1100
-1059
-1005
-943
-879
-818
-761
-705
-651
-606
-568
-534
-509
-492
-501
-537
-588
-650
-728
-813
-903
-988
-1065
-1121
-1141
-1148
-1155
-1157
-1153
-1147
-1139
-1134
-1125
-1116
-1110
-1106
-1104
-1101
-1100
-1100
-1100
-1100
-1100
-1099
-1100
-1100
-1100
-1100
-1100
-1099
-1099
-1099
-1097
-1096
-1096
-1095
-1096
-1095
-1095
-1095
-1093
-1092
-1091
-1090
-1089
-1089
-1089
-1089
-1088
-1087
-1086
-1085
-1083
-1082
-1081
-1080
-1079
-1079
-1079
-1077
-1076
-1074
-1074
-1071
-1070
-1069
-1068
-1068
-1066
-1065
-1064
-1061
-1059
-1057
-1056
-1055
-1054
-1052
-1050
-1049
-1047
-1044
-1041
-1039
-1037
-1035
-1032
-1030
-1028
-1026
-1023
-1019
-1016
-1013
-1010
-1007
-1004
-1002
-999
-995
-993
-990
-986
-982
-980
-978
-977
-975
-973
-971
-968
-965
-963
-962
-960
-959
-959
-959
-958
-957
-957
-956
-956
-957
-959
-962
-965
-969
-973
-977
-982
-987
-992
-997
-1002
-1008
-1015
-1021
-1028
-1034
-1039
-1044
-1048
-1053
-1058
-1064
-1068
-1072
-1077
-1080
-1083
-1085
-1087
-1090
-1093
-1096
-1098
-1099
-1100
-1102
-1102
-1103
-1103
-1104
-1105
-1105
-1107
-1108
-1108
-1108
-1109
-1108
-1107
-1107
-1108
-1109
-1109
-1110
-1110
-1109
-1108
-1108
-1108
-1108
-1108
-1108
-1109
-1108
-1108
-1108
-1108
-1107
-1107
-1106
-1107
-1107
-1107
-1108
-1107
-1106
-1106
-1106
-1106
-1106
-1106
-1107
-1107
-1108
-1108
-1107
-1107
-1107
-1106
-1107
-1108
-1108
-1109
-1109
-1110
-1110
-1109
-1108
-1109
-1109
-1110
-1111
-1111
-1112
-1112
-1112
-1112
-1112
-1111
-1112
-1112
-1113
-1115
-1115
-1115
-1115
-1115
-1115
-1115
-1115
-1116
-1117
-1117
-1118
-1118
-1118
-1118
-1117
-1117
-1118
-1118
-1119
-1119
-1120
-1121
-1120
-1119
-1119
-1119
-1120
-1120
-1121
-1121
-1122
-1122
-1121
-1121
-1121
-1121
-1121
-1121
-1122
-1123
-1123
-1123
-1123
-1123
-1122
-1121
-1122
-1122
-1123
-1123
-1124
-1124
-1124
-1123
-1122
-1122
-1123
-1124
-1124
-1125
-1125
-1124
-1124
-1124
-1124
-1124
-1123
-1124
-1124
-1124
-1125
-1125
-1125
-1124
-1124
-1123
-1124
-1125
-1125
-1126
-1126
-1125
-1125
-1124
-1124
-1124
-1124
-1125
-1125
-1126
-1126
-1126
-1125
-1125
-1124
-1124
-1124
-1124
-1124
-1125
-1123
-1122
-1122
-1121
-1120
-1119
-1119
-1118
-1116
-1115
-1115
-1114
-1114
-1114
-1113
-1113
-1113
-1112
-1111
-1108
-1105
-1103
-1101
-1100
-1102
-1104
-1107
-1109
-1112
-1115
-1116
-1116
-1117
-1117
-1118
-1118
-1120
-1122
-1125
-1127
-1128
-1129
-1129
-1129
-1129
-1130
-1131
-1131
-1132
-1133
-1133
-1132
-1132
-1132
-1132
-1132
-1133
-1133
-1134
-1134
-1134
-1134
-1134
-1133
-1133
-1134
-1135
-1137
-1140
-1144
-1150
-1158
-1167
-1173
-1179
-1184
-1182
-1172
-1154
-1134
-1105
-1059
-1003
-939
-871
-810
-752
-693
-635
-589
-549
-516
-492
-483
-506
-552
-607
-678
-762
-852
-940
-1023
-1096
-1142
-1156
-1163
-1165
-1159
-1154
-1148
-1141
-1133
-1124
-1118
-1113
-1109
-1108
-1107
-1107
-1108
-1108
-1109
-1108
-1107
-1107
-1107
-1107
-1107
-1107
-1107
-1107
-1105
-1103
-1103
-1103
-1102
-1101
-1101
-1101
-1101
-1100
-1099
-1098
-1097
-1096
-1096
-1096
-1095
-1094
-1093
-1092
-1091
-1089
-1087
-1087
-1086
-1085
-1085
-1084
-1083
-1082
-1080
-1077
-1076
-1076
-1074
-1074
-1073
-1072
-1070
-1068
-1066
-1064
-1062
-1060
-1059
-1058
-1057
-1056
-1053
-1051
-1048
-1045
-1043
-1041
-1039
-1037
-1035
-1032
-1030
-1026
-1023
-1019
-1016
-1013
-1010
-1008
-1005
-1002
-999
-995
-992
-988
-985
-983
-980
-978
-977
-975
-973
-970
-968
-966
-964
-962
-962
-961
-960
-959
-959
-958
-958
-958
-960
-961
-964
-968
-971
-976
-980
-984
-988
-993
-998
-1005
-1011
-1017
-1024
-1030
-1036
-1042
-1046
-1051
-1056
-1061
-1067
-1072
-1076
-1079
-1083
-1086
-1088
-1090
-1093
-1096
-1100
-1102
-1103
-1105
-1106
-1107
-1107
-1106
-1107
-1108
-1109
-1110
-1111
-1111
-1111
-1111
-1110
-1110
-1110
-1110
-1111
-1111
-1111
-1111
-1111
-1110
-1110
-1109
-1108
-1108
-1109
-1109
-1111
-1111
-1110
-1110
-1110
-1109
-1109
-1109
-1109
-1110
-1110
-1110
-1110
-1109
-1109
-1108
-1108
-1109
-1109
-1109
-1110
-1109
-1109
-1108
-1107
-1108
-1109
-1111
-1112
-1112
-1112
-1113
-1112
-1111
-1111
-1110
-1111
-1111
-1112
-1113
-1114
-1113
-1113
-1113
-1113
-1113
-1114
-1115
-1116
-1117
-1117
-1117
-1116
-1116
-1116
-1115
-1116
-1116
-1118
-1119
-1119
-1119
-1120
-1119
-1118
-1118
-1118
-1120
-1120
-1120
-1121
-1121
-1121
-1121
-1120
-1120
-1120
-1121
-1121
-1122
-1123
-1122
-1121
-1121
-1120
-1120
-1120
-1121
-1122
-1123
-1123
-1123
-1123
-1122
-1121
-1121
-1122
-1122
-1123
-1123
-1124
-1124
-1124
-1123
-1123
-1122
-1123
-1123
-1123
-1123
-1124
-1125
-1125
-1124
-1124
-1123
-1124
-1124
-1124
-1125
-1125
-1125
-1124
-1124
-1123
-1123
-1124
-1125
-1125
-1126
-1126
-1126
-1125
-1124
-1124
-1124
-1124
-1125
-1125
-1125
-1125
-1125
-1125
-1124
-1124
-1124
-1125
-1125
-1126
-1126
-1126
-1125
-1123
-1122
-1121
-1120
-1119
-1120
-1119
-1117
-1116
-1115
-1115
-1115
-1115
-1114
-1114
-1115
-1115
-1114
-1111
-1107
-1104
-1101
-1099
-1101
-1103
-1106
-1109
-1111
-1112
-1114
-1115
-1114
-1115
-1117
-1118
-1119
-1121
-1124
-1125
-1126
-1127
-1128
-1128
-1128
-1129
-1130
-1131
-1131
-1131
-1131
-1131
-1131
-1131
-1131
-1132
-1134
-1134
-1133
-1134
-1134
-1133
-1132
-1132
-1132
-1133
-1133
-1135
-1137
-1140
-1144
-1149
-1156
-1163
-1169
-1174
-1177
-1172
-1160
-1141
-1118
-1083
-1034
-978
-917
-857
-801
-748
-694
-649
-611
-574
-546
-525
-520
-545
-590
-646
-716
-797
-880
-967
-1044
-1109
-1141
-1155
-1163
-1172
-1173
-1166
-1159
-1152
-1144
-1133
-1125
-1120
-1115
-1112
-1111
-1110
-1109
-1109
-1108
-1107
-1108
-1108
-1108
-1108
-1108
-1107
-1106
-1105
-1105
-1104
-1104
-1104
-1103
-1103
-1103
-1102
-1102
-1100
-1099
-1098
-1098
-1097
-1096
-1096
-1096
-1095
-1094
-1092
-1090
-1090
-1089
-1088
-1088
-1088
-1087
-1085
-1083
-1082
-1080
-1079
-1078
-1078
-1077
-1076
-1074
-1072
-1071
-1069
-1068
-1066
-1064
-1063
-1062
-1060
-1059
-1056
-1054
-1051
-1049
-1046
-1045
-1043
-1042
-1040
-1037
-1034
-1031
-1028
-1024
-1022
-1019
-1017
-1014
-1012
-1009
-1006
-1002
-999
-996
-993
-991
-989
-987
-985
-983
-981
-978
-976
-974
-972
-971
-971
-970
-969
-968
-968
-967
-966
-967
-968
-970
-972
-976
-979
-982
-986
-990
-994
-999
-1004
-1010
-1016
-1022
-1028
-1033
-1038
-1044
-1048
-1053
-1058
-1064
-1069
-1074
-1079
-1082
-1084
-1087
-1089
-1091
-1094
-1097
-1100
-1102
-1104
-1106
-1106
-1107
-1108
-1108
-1110
-1110
-1112
-1113
-1113
-1113
-1113
-1112
-1112
-1113
-1114
-1114
-1114
-1115
-1115
-1114
-1114
-1113
-1113
-1113
-1113
-1113
-1114
-1114
-1114
-1114
-1113
-1112
-1111
-1111
-1111
-1111
-1112
-1112
-1113
-1113
-1112
-1112
-1110
-1110
-1110
-1112
-1112
-1112
-1113
-1113
-1112
-1112
-1112
-1112
-1112
-1113
-1113
-1114
-1114
-1114
-1114
-1113
-1113
-1113
-1114
-1114
-1115
-1115
-1116
-1116
-1116
-1116
-1116
-1116
-1117
-1118
-1119
-1120
-1120
-1120
-1119
-1119
-1119
-1119
-1120
-1121
-1122
-1122
-1123
-1123
-1122
-1122
-1122
-1121
-1122
-1124
-1124
-1125
-1125
-1124
-1124
-1124
-1124
-1125
-1125
-1126
-1126
-1127
-1127
-1127
-1127
-1126
-1126
-1126
-1126
-1127
-1128
-1128
-1128
-1128
-1128
-1127
-1127
-1127
-1128
-1129
-1129
-1129
-1130
-1130
-1129
-1128
-1128
-1128
-1129
-1129
-1129
-1129
-1131
-1130
-1129
-1129
-1129
-1129
-1130
-1131
-1131
-1131
-1131
-1131
-1130
-1130
-1130
-1130
-1131
-1131
-1132
-1132
-1132
-1131
-1131
-1130
-1129
-1129
-1129
-1129
-1129
-1128
-1127
-1127
-1125
-1124
-1121
-1121
-1121
-1121
-1121
-1122
-1121
-1120
-1120
-1118
-1115
-1112
-1110
-1108
-1107
-1106
-1109
-1112
-1113
-1114
-1116
-1118
-1120
-1121
-1122
-1124
-1125
-1125
-1127
-1127
-1129
-1132
-1134
-1135
-1137
-1137
-1138
-1137
-1137
-1137
-1137
-1138
-1139
-1140
-1140
-1140
-1140
-1140
-1139
-1139
-1139
-1139
-1140
-1140
-1141
-1141
-1141
-1140
-1140
-1141
-1143
-1147
-1154
-1160
-1169
-1177
-1183
-1189
-1189
-1181
-1166
-1147
-1122
-1084
-1033
-973
-908
-846
-788
-730
-673
-626
-587
-551
-524
-506
-511
-544
-593
-653
-730
-815
-905
-993
-1071
-1134
-1158
-1166
-1171
-1172
-1167
-1161
-1155
-1149
-1140
-1132
-1126
-1120
-1117
-1114
-1113
-1115
-1115
-1115
-1116
-1116
-1115
-1115
-1114
-1114
-1113
-1114
-1113
-1113
-1113
-1111
-1111
-1110
-1109
-1108
-1107
-1107
-1107
-1107
-1106
-1106
-1104
-1103
-1102
-1101
-1100
-1100
-1099
-1099
-1099
-1097
-1095
-1094
-1092
-1091
-1091
-1090
-1089
-1089
-1087
-1086
-1084
-1082
-1080
-1079
-1078
-1077
-1076
-1074
-1073
-1072
-1069
-1067
-1065
-1064
-1062
-1060
-1059
-1057
-1055
-1052
-1049
-1047
-1044
-1041
-1039
-1036
-1034
-1031
-1029
-1025
-1021
-1018
-1015
-1012
-1009
-1006
-1004
-1001
-999
-996
-993
-989
-986
-985
-983
-982
-981
-979
-977
-975
-973
-972
-970
-969
-970
-970
-970
-970
-971
-973
-975
-976
-979
-983
-987
-992
-997
-1003
-1008
-1014
-1019
-1024
-1030
-1036
-1042
-1048
-1054
-1059
-1064
-1069
-1073
-1077
-1081
-1085
-1089
-1093
-1096
-1099
-1101
-1103
-1104
-1106
-1107
-1110
-1112
-1113
-1114
-1116
-1116
-1116
-1116
-1116
-1117
-1118
-1119
-1119
-1120
-1120
-1120
-1120
-1119
-1119
-1119
-1119
-1120
-1120
-1120
-1120
-1120
-1119
-1118
-1118
-1117
-1117
-1118
-1118
-1118
-1118
-1117
-1116
-1116
-1115
-1115
-1115
-1116
-1116
-1116
-1116
-1116
-1116
-1115
-1114
-1114
-1115
-1116
-1116
-1116
-1116
-1116
-1116
-1116
-1116
-1116
-1116
-1118
-1118
-1118
-1119
-1118
-1118
-1118
-1118
-1118
-1119
-1120
-1121
-1122
-1122
-1122
-1122
-1121
-1121
-1121
-1122
-1123
-1123
-1124
-1124
-1125
-1124
-1124
-1124
-1124
-1125
-1126
-1126
-1127
-1127
-1126
-1126
-1126
-1126
-1126
-1126
-1128
-1128
-1129
-1129
-1129
-1128
-1128
-1127
-1128
-1129
-1129
-1130
-1130
-1130
-1129
-1129
-1129
-1128
-1129
-1130
-1131
-1132
-1132
-1132
-1131
-1131
-1130
-1130
-1130
-1131
-1132
-1133
-1133
-1132
-1132
-1132
-1132
-1131
-1132
-1133
-1133
-1134
-1134
-1134
-1133
-1133
-1132
-1132
-1132
-1133
-1134
-1134
-1134
-1134
-1133
-1133
-1133
-1132
-1133
-1134
-1134
-1135
-1135
-1135
-1134
-1133
-1133
-1133
-1134
-1134
-1134
-1134
-1134
-1134
-1134
-1133
-1133
-1134
-1133
-1134
-1134
-1135
-1135
-1135
-1133
-1132
-1131
-1131
-1131
-1131
-1130
-1130
-1130
-1129
-1128
-1125
-1123
-1122
-1122
-1123
-1124
-1124
-1123
-1123
-1122
-1120
-1117
-1114
-1111
-1110
-1109
-1111
-1113
-1115
-1116
-1117
-1119
-1120
-1122
-1124
-1125
-1127
-1127
-1128
-1128
-1130
-1132
-1133
-1135
-1137
-1138
-1139
-1139
-1140
-1139
-1139
-1139
-1139
-1140
-1140
-1141
-1141
-1141
-1141
-1141
-1141
-1140
-1141
-1141
-1142
-1142
-1143
-1143
-1143
-1143
-1144
-1147
-1151
-1158
-1166
-1175
-1182
-1189
-1192
-1187
-1175
-1158
-1137
-1105
-1059
-1003
-939
-874
-813
-753
-694
-638
-595
-557
-525
-504
-500
-529
-577
-632
-703
-787
-874
-963
-1044
-1116
-1157
-1169
-1175
-1175
-1168
-1161
-1155
-1149
-1141
-1134
-1128
-1123
-1119
-1116
-1114
-1115
-1115
-1116
-1116
-1116
-1116
-1116
-1115
-1114
-1113
-1113
-1113
-1113
-1113
-1112
-1112
-1111
-1110
-1109
-1108
-1107
-1107
-1107
-1107
-1106
-1105
-1104
-1103
-1102
-1100
-1099
-1099
-1098
-1097
-1097
-1097
-1095
-1093
-1091
-1090
-1089
-1089
-1088
-1087
-1086
-1085
-1083
-1082
-1080
-1078
-1077
-1076
-1074
-1074
-1073
-1071
-1069
-1066
-1063
-1061
-1060
-1058
-1056
-1055
-1053
-1051
-1048
-1045
-1042
-1039
-1036
-1033
-1031
-1029
-1026
-1023
-1020
-1016
-1013
-1010
-1007
-1004
-1001
-998
-996
-993
-991
-988
-985
-981
-980
-979
-977
-976
-974
-973
-970
-969
-968
-966
-965
-966
-967
-968
-969
-970
-972
-974
-977
-980
-984
-989
-994
-1000
-1006
-1011
-1016
-1021
-1027
-1032
-1039
-1045
-1052
-1057
-1062
-1067
-1072
-1075
-1079
-1083
-1087
-1090
-1093
-1097
-1101
-1102
-1103
-1105
-1106
-1108
-1109
-1111
-1113
-1114
-1115
-1115
-1115
-1115
-1115
-1115
-1116
-1117
-1118
-1119
-1118
-1118
-1118
-1118
-1117
-1117
-1118
-1118
-1119
-1119
-1119
-1119
-1119
-1117
-1116
-1116
-1116
-1116
-1116
-1117
-1117
-1117
-1116
-1115
-1114
-1113
-1114
-1115
-1115
-1116
-1116
-1116
-1115
-1115
-1114
-1114
-1114
-1115
-1115
-1115
-1115
-1116
-1115
-1115
-1114
-1115
-1116
-1116
