17231
32706
29247
26640
25062
-4210
-32768
-32768
-32768
-26889
13958
32007
32053
32767
32767
20510
-22115
-32768
-32768
-24726
17112
32311
32166
32767
32767
20485
-22175
-32768
-32768
-23139
17484
30761
31006
32481
32767
15295
-26021
-32768
-32768
-22086
19879
32115
31836
32767
32767
15216
-25971
-32768
-32768
-15796
24618
32767
25582
8993
-6692
-32768
-32768
-32768
-19107
6021
22860
16550
16354
6609
-2584
-9109
-12840
-3461
630
2022
2698
2129
1922
1137
-51
-161
-402
-10701
-12628
17185
32767
28210
16137
9010
-13131
-32768
-32768
-31529
-29481
1999
29541
29583
29773
30686
20277
-14906
-32768
-32768
-30071
3003
31229
29394
26901
27650
14836
-23257
-32768
-32768
-27890
7792
31797
29567
20835
12949
-8736
-32768
-32768
-32768
-27696
8099
32682
31284
29786
31473
25447
-14006
-32768
-30891
-21329
15256
32767
32528
32737
32693
10012
-26523
-32768
-30610
-16613
20783
32509
28567
26384
25112
1146
-32001
-32768
-32768
-29306
5753
27333
26495
19592
5693
-18911
-32768
-32018
-22983
-2795
6441
7245
14786
20991
15113
-16031
-32768
-32768
-32768
-21481
18945
32767
30811
31024
32767
21613
-20169
-30153
-16773
1322
22827
30606
25387
24727
12252
-10912
-31970
-32768
-31897
-19713
21090
32767
32550
32767
32767
23766
-18981
-32768
-32768
-19655
21229
31079
28311
26589
10751
-13673
-29897
-10615
-4502
7769
17692
23147
20240
18807
6298
-23185
-28876
-31121
-28178
4441
32760
30937
24044
17031
3069
-25920
-22740
-11551
-4088
11035
14489
21469
11340
3935
-6164
-20793
-19589
-3364
-724
16609
23703
9429
7985
1217
-309
-7124
-7874
-4482
2047
19313
17585
6974
1575
1008
-10888
-32768
-32768
-32768
-29860
7094
32767
29661
7784
941
780
-9824
-30155
-30596
-25068
-3961
950
945
942
940
939
941
942
945
947
949
947
943
940
938
937
939
941
943
946
947
947
944
941
938
937
938
942
946
948
948
946
945
941
939
939
940
942
945
947
948
946
942
940
939
937
939
941
944
947
947
945
943
941
938
939
940
942
945
947
947
947
944
941
939
938
940
943
947
949
949
948
945
943
941
940
941
942
946
948
948
947
944
941
939
940
943
945
946
948
948
945
943
940
939
940
941
942
946
949
980
2197
2215
984
-402
-18274
-32768
-27487
-3849
2314
17502
29903
20678
13176
-1108
-23441
-32768
-32768
-10872
8811
26952
30739
28386
23412
12434
-22721
-32768
-32768
-31260
-13257
25258
30123
28070
28113
13230
-16807
-25217
-29053
-15809
5629
19632
28978
27311
21963
1171
-9239
-19411
-28171
-9794
7123
21075
24169
25026
25382
20319
-14001
-32768
-32768
-29877
269
30934
27398
25359
23110
45
-25457
-24115
-19164
-22229
4191
27782
30076
19757
4599
-12235
-31644
-21033
-9616
-4423
3860
9596
11444
9271
1441
909
-597
-5901
-2067
1485
5664
4265
7053
8258
3427
-4048
-13417
-20239
-6568
599
5949
4299
2776
2830
1356
937
-1848
-4748
-2391
745
4862
9049
2217
996
1006
990
861
-841
-674
1382
3117
3718
2610
1097
1017
496
-8925
-13104
-22
3962
11711
22368
19475
8193
1508
-4384
127
813
733
870
896
909
904
902
908
912
912
873
902
988
1040
973
953
950
947
949
950
955
958
959
960
959
957
955
953
944
573
523
826
1022
982
969
986
981
820
846
959
959
966
968
968
966
962
960
960
961
964
967
972
974
973
971
968
966
965
965
969
974
976
979
978
976
975
973
973
974
976
980
983
985
986
985
984
984
794
709
803
746
1121
995
1036
1962
1861
1016
948
977
1004
961
999
1250
1049
1058
2193
3377
234
407
1017
978
965
1034
1034
1032
1031
1029
1029
1032
1035
1039
1040
1039
1038
1036
1032
1027
1026
1024
1023
1024
1023
1021
1017
1011
1004
998
995
993
991
990
990
988
983
977
973
969
966
965
964
965
965
963
962
957
952
948
946
947
949
953
955
954
951
949
946
942
941
943
946
949
952
951
949
946
945
942
941
943
947
949
951
951
949
946
945
945
944
945
946
949
951
951
948
945
943
943
942
944
947
950
951
951
949
945
943
942
940
942
947
949
950
949
948
944
941
940
939
941
943
946
948
948
946
943
940
940
941
942
945
946
947
947
946
943
940
939
939
939
942
946
948
947
946
943
938
937
939
942
943
945
947
946
944
942
941
939
940
941
944
946
946
947
945
942
939
938
939
941
943
947
948
947
945
942
940
939
939
941
945
947
948
947
945
942
941
940
941
942
945
949
950
949
946
944
941
940
942
944
946
948
950
951
948
944
943
943
943
945
948
951
952
950
948
946
944
943
946
949
953
957
959
959
959
958
959
959
960
960
961
963
965
965
966
967
967
967
970
972
974
972
971
967
966
964
961
961
961
960
962
963
961
959
956
954
950
949
950
951
953
953
953
952
949
946
945
945
945
949
951
953
952
951
947
944
942
943
944
947
951
952
952
950
946
944
943
943
945
948
951
953
953
951
949
947
948
949
949
952
954
953
958
974
997
1025
1058
1092
1128
1161
1187
1197
1166
1116
1062
1013
986
982
980
975
965
945
925
908
894
885
880
879
883
888
896
900
904
910
916
922
928
936
944
951
957
961
962
961
959
957
957
958
960
964
967
969
969
966
963
963
962
963
965
968
971
972
971
969
967
965
964
965
969
972
975
975
975
974
972
970
970
971
974
977
979
980
981
988
995
952
767
930
980
981
971
1033
1554
1588
1007
988
994
986
990
994
995
997
997
996
995
994
995
997
1002
1007
1010
1010
1010
1011
1010
1011
1011
1014
1019
1024
1027
1030
1029
1026
1027
1027
1028
1030
1034
1039
1043
1043
1043
1040
1038
1038
1039
1040
1034
948
1022
1048
1045
1041
1037
1018
1007
1024
1030
1031
1029
1024
1020
1015
1009
1003
998
996
996
996
994
992
988
982
977
974
971
970
971
972
973
971
966
962
959
956
956
957
959
962
962
961
959
956
953
952
952
954
956
959
961
961
959
955
952
951
952
954
957
959
959
959
958
954
952
951
950
953
955
959
959
959
958
956
954
951
952
954
956
959
959
959
955
953
951
950
951
953
955
957
959
956
954
951
948
948
949
949
952
954
957
955
954
950
947
946
948
951
953
954
955
953
949
947
945
944
945
948
950
952
953
952
950
946
945
943
946
948
952
953
952
950
947
943
940
940
944
946
947
949
952
951
949
945
942
940
941
944
947
949
951
949
946
943
941
941
942
945
948
951
952
950
947
943
939
939
941
943
946
949
950
949
945
943
942
941
943
945
948
948
948
946
945
943
940
940
942
944
946
948
949
946
942
941
939
939
941
944
947
949
949
948
945
942
939
941
943
946
950
952
953
952
951
949
949
951
956
959
961
960
959
957
958
957
958
961
965
967
970
972
970
966
963
960
959
960
961
962
963
962
962
959
953
949
948
947
948
952
953
953
951
947
944
942
940
940
942
946
949
950
949
946
944
942
941
941
944
947
949
950
949
946
943
941
940
941
946
950
953
953
952
949
946
945
945
947
950
953
954
955
952
950
957
973
1000
1031
1068
1104
1139
1165
1183
1181
1144
1096
1048
1008
992
993
993
986
972
950
929
911
900
896
894
892
894
897
900
903
904
908
915
925
935
944
952
958
959
959
959
958
958
962
965
968
971
972
971
968
966
964
965
967
971
974
977
977
976
973
972
970
969
971
974
977
980
980
979
977
975
974
974
975
979
983
984
984
983
981
978
978
978
981
985
988
989
990
989
987
986
985
985
987
990
994
998
999
1011
1042
989
985
919
594
388
931
1010
1028
1055
1129
1093
1017
1005
1013
1018
1022
1025
1027
1026
1025
1024
1025
1028
1031
1035
1039
1041
1042
1042
1043
1042
1039
1039
1041
1046
1049
1049
1049
1047
1045
1041
1039
1037
1038
1039
1040
1038
1034
1029
1022
1017
1013
1010
1008
1008
1008
1006
1003
997
992
986
982
981
982
982
983
983
980
976
972
969
966
966
966
969
971
971
969
966
963
960
959
959
962
966
968
968
967
964
961
959
960
962
964
967
968
967
967
964
962
959
958
959
961
964
966
967
965
962
959
959
958
960
962
965
966
967
966
963
960
958
958
958
961
964
966
968
967
963
960
957
957
958
961
964
966
965
963
961
959
957
958
960
962
966
966
966
964
959
955
952
953
957
960
963
964
965
963
960
959
957
955
955
959
962
962
960
960
958
956
954
954
954
956
960
961
962
960
957
954
952
953
954
958
960
998
983
960
955
942
943
947
590
496
953
1100
1597
1047
954
952
897
770
933
955
962
978
1086
1624
1183
915
909
907
942
960
960
960
959
957
953
949
949
951
953
956
971
1052
982
961
953
950
948
948
950
954
956
956
957
954
951
949
946
948
950
953
957
957
955
953
949
946
945
947
950
954
956
956
957
954
950
949
950
952
955
957
960
962
964
963
963
962
962
963
961
963
967
968
971
973
972
969
967
969
971
973
973
972
971
969
967
964
962
959
959
962
963
961
959
956
953
950
950
950
952
954
954
952
952
949
946
945
945
947
949
950
951
952
950
949
946
945
943
944
947
950
952
951
949
947
944
943
943
947
950
952
953
953
952
949
949
949
949
951
954
955
960
974
995
1022
1051
1084
1118
1150
1176
1191
1171
1129
1078
1030
999
991
987
981
972
957
940
923
907
897
892
886
885
890
896
903
908
912
918
923
929
934
940
948
953
959
971
971
974
966
957
967
960
961
966
967
1007
1085
1016
1089
1104
1003
956
969
977
974
1126
1260
1027
975
967
966
969
971
973
976
978
977
975
973
972
971
973
975
978
980
982
982
981
978
976
976
978
980
984
987
989
989
987
985
983
983
986
990
993
997
999
998
997
995
994
996
999
1003
1007
1010
1012
1013
1011
1011
1012
1013
1016
1021
1025
1029
1030
1030
1030
1029
1030
1030
1033
1038
1043
1047
1048
1047
1044
1043
1042
1043
1045
1048
1051
1052
1052
1048
1044
1040
1037
1035
1034
1034
1034
1032
1028
1024
1018
1013
1007
1003
1002
1002
1001
1000
998
994
989
983
979
977
977
978
978
979
977
975
971
967
965
964
966
967
969
970
970
967
964
961
960
959
962
965
966
968
968
966
964
961
959
960
962
965
967
968
968
966
963
961
959
960
962
965
967
968
966
964
961
960
958
959
962
965
967
968
967
965
962
960
959
960
962
965
967
968
967
963
961
959
957
959
961
964
966
966
964
962
960
957
957
958
960
963
964
965
964
961
958
957
955
956
958
961
963
964
962
960
957
955
954
956
958
960
963
963
961
958
956
955
954
955
957
960
962
963
961
958
956
954
952
954
957
961
962
962
961
959
956
954
954
955
958
961
963
962
959
957
954
953
953
954
957
960
962
962
960
957
956
953
953
956
957
960
962
963
960
957
954
953
953
954
957
959
960
961
960
957
954
952
953
955
958
961
961
961
960
958
955
953
954
955
958
960
962
961
959
957
953
952
953
956
961
965
967
968
967
966
965
966
970
972
973
972
973
973
972
973
974
975
977
978
982
986
986
982
977
973
971
971
970
971
972
973
973
969
965
963
961
961
960
961
962
963
963
963
958
955
952
951
952
954
956
959
961
960
958
954
951
951
952
955
957
958
959
959
958
956
954
952
952
954
958
961
962
961
959
957
955
955
956
958
959
962
963
960
964
980
1005
1037
1072
1108
1147
1180
1204
1207
1168
1118
1066
1020
997
992
989
983
970
944
923
906
895
888
886
889
895
901
906
908
911
917
923
932
939
947
956
962
965
966
966
965
965
964
964
968
972
973
974
972
971
971
969
969
972
973
976
978
978
977
975
974
973
972
972
977
981
981
981
980
977
975
975
975
977
981
984
985
984
982
981
981
980
982
985
986
988
989
988
988
987
985
986
987
989
994
997
1000
1003
1001
999
997
997
998
990
991
1008
1011
1013
1013
1011
1010
1011
1014
1017
1023
1028
1032
1034
1034
1032
1030
1029
1032
1036
1040
1044
1048
1048
1047
1046
1044
1044
1044
1034
1049
1054
1060
1065
1056
1049
1046
1044
1042
1041
1038
1042
1043
1036
1029
1023
1018
1013
1011
1009
1009
1007
1004
1000
996
990
984
980
979
979
980
978
978
976
972
968
964
962
963
965
967
968
968
966
963
960
958
958
959
961
964
965
965
964
961
959
958
958
960
963
965
967
966
965
963
961
959
959
961
964
966
969
968
967
965
962
961
961
965
967
968
970
970
968
966
962
960
961
963
966
969
970
970
968
966
963
961
961
964
967
969
970
969
967
965
963
961
961
963
965
968
969
968
967
964
961
960
961
963
965
967
968
968
967
964
961
960
960
963
965
967
968
967
965
962
960
959
960
962
964
967
967
967
965
962
959
958
960
961
964
967
968
967
964
962
960
958
959
960
963
966
967
966
964
961
959
959
960
963
966
968
968
966
964
962
960
959
960
963
966
967
968
967
965
962
960
959
960
963
965
967
967
966
964
961
959
959
960
962
965
967
967
966
964
961
959
959
961
963
966
968
968
967
966
965
964
965
968
972
977
981
984
983
980
974
971
971
974
978
984
989
991
990
988
986
982
980
980
981
983
986
986
983
978
975
971
968
969
970
973
974
974
971
967
963
960
959
960
963
965
966
966
964
962
959
957
957
959
962
964
965
965
963
962
960
957
956
957
958
963
966
965
964
961
960
958
958
960
962
964
967
969
968
964
962
960
958
962
981
1006
1038
1072
1106
1138
1170
1194
1210
1190
1145
1095
1045
1012
1001
993
983
969
949
929
917
910
905
900
898
898
899
901
906
912
923
935
946
953
958
961
962
964
967
972
975
979
982
980
976
975
975
974
975
978
981
984
985
985
983
981
979
978
979
982
985
986
987
985
984
983
980
981
984
988
990
992
993
991
989
987
986
986
987
991
995
996
996
996
994
993
992
992
995
999
1001
1004
1004
1004
1002
1000
1001
1002
1005
1009
1012
1016
1017
1016
1014
1013
1012
1014
1017
1021
1026
1029
1032
1032
1032
1032
1031
1033
1036
1041
1045
1047
1049
1050
1049
1048
1049
1051
1054
1058
1061
1063
1064
1062
1060
1058
1057
1058
1059
1060
1062
1063
1060
1056
1050
1045
1041
1037
1036
1034
1034
1032
1027
1021
1017
1011
1007
1004
1002
1003
1003
1001
998
993
988
984
981
979
980
981
982
981
980
978
974
971
969
969
972
974
975
975
975
973
971
970
968
968
970
973
974
974
974
972
969
967
966
967
969
971
973
974
973
970
968
967
967
968
970
973
975
975
973
971
969
966
965
966
968
971
973
974
973
970
967
965
963
965
968
970
972
972
971
969
967
965
964
965
968
970
971
972
970
967
964
963
963
964
967
969
971
971
970
967
965
962
963
964
966
969
970
970
968
965
964
962
961
963
965
968
970
970
969
966
964
963
962
963
966
969
970
969
968
965
963
962
962
964
966
968
970
970
969
966
964
963
963
964
966
969
971
971
968
966
963
962
963
965
968
971
972
971
969
967
964
963
964
966
968
970
971
970
969
967
964
963
964
964
968
971
973
972
970
968
965
964
964
966
969
971
973
971
969
966
965
965
966
968
970
972
973
974
972
968
964
962
965
972
980
987
989
987
984
982
980
981
985
991
995
997
999
998
994
989
985
984
984
986
989
990
989
985
981
977
974
972
973
975
976
977
977
974
970
967
964
964
965
967
971
972
972
970
968
965
963
962
963
966
969
971
971
969
967
965
963
963
964
966
968
969
969
969
967
965
963
963
965
968
972
975
974
971
968
963
967
984
1010
1044
1081
1118
1154
1185
1207
1215
1184
1135
1083
1037
1012
1008
1003
994
979
956
935
920
911
908
906
907
909
910
913
915
918
926
937
949
958
966
971
974
975
975
976
978
980
983
987
989
988
987
986
984
983
983
985
989
992
993
993
991
989
988
986
986
989
992
994
996
996
994
992
991
991
991
994
997
999
1001
1002
1000
999
996
996
997
1000
1003
1006
1007
1007
1006
1004
1003
1004
1006
1008
1012
1015
1018
1018
1016
1014
1013
1014
1015
1018
1022
1025
1028
1030
1030
1029
1028
1028
1031
1034
1039
1043
1045
1046
1045
1044
1045
1047
1050
1054
1058
1061
1063
1063
1063
1063
1063
1063
1066
1069
1072
1074
1075
1074
1071
1068
1067
1067
1067
1067
1068
1068
1066
1062
1055
1049
1043
1039
1038
1037
1036
1035
1032
1027
1022
1015
1010
1006
1006
1006
1005
1004
1002
998
995
991
987
985
986
987
988
989
988
985
982
980
978
977
978
980
982
985
985
983
981
978
976
976
978
980
981
984
983
981
979
976
976
977
978
980
983
984
984
982
978
975
975
975
977
980
981
982
984
982
979
976
974
975
977
977
979
982
982
979
977
976
975
975
975
977
978
978
978
977
974
973
972
973
976
979
981
982
980
978
974
971
969
971
974
975
977
978
978
975
974
972
971
971
972
974
976
976
974
972
970
969
968
971
973
975
976
976
975
973
970
968
966
966
969
973
975
976
975
973
971
968
968
968
969
972
974
973
972
970
969
968
967
966
969
971
973
972
971
969
967
966
965
967
969
971
972
973
972
969
966
965
965
966
968
970
970
970
969
967
964
962
962
965
968
971
971
971
969
966
964
964
962
963
966
968
970
970
968
965
963
960
960
964
968
970
971
969
967
965
963
963
966
968
970
972
975
978
980
981
979
976
975
974
975
978
981
985
987
987
985
984
984
984
986
985
985
986
984
980
978
975
972
973
973
974
974
973
972
968
965
963
963
962
964
966
967
967
966
963
959
958
958
960
963
965
966
965
963
961
959
958
959
961
964
966
967
966
964
961
958
958
960
961
964
967
968
967
967
966
964
963
964
964
966
974
991
1014
1042
1072
1104
1136
1166
1189
1201
1174
1129
1079
1036
1012
1006
1004
998
989
972
954
940
928
918
913
906
904
907
913
919
923
928
935
942
948
953
958
964
971
975
979
981
981
981
979
978
979
980
982
985
986
987
987
985
984
983
983
984
986
991
993
993
992
990
988
987
986
988
991
993
996
996
995
993
990
989
990
992
995
999
1002
1002
1000
998
996
996
997
999
1003
1006
1006
1007
1006
1006
1004
1004
1005
1008
1011
1015
1018
1018
1017
1016
1016
1015
1017
1020
1024
1028
1030
1031
1031
1031
1031
1031
1034
1038
1042
1046
1049
1051
1050
1050
1048
1048
1051
1054
1059
1063
1064
1065
1064
1061
1060
1061
1061
1063
1066
1068
1068
1065
1061
1058
1054
1052
1050
1049
1049
1048
1046
1042
1037
1031
1025
1021
1019
1018
1018
1017
1015
1011
1005
1000
997
994
994
993
994
995
996
993
990
986
984
983
983
984
987
987
988
987
985
982
980
979
980
981
984
986
986
985
982
979
978
978
978
980
983
985
986
984
982
980
977
976
977
979
981
983
983
982
980
979
977
976
978
980
982
984
984
982
981
979
978
977
978
979
981
983
983
982
981
980
977
977
978
980
981
983
982
981
979
977
975
976
978
980
981
982
982
979
976
975
974
975
975
977
979
981
980
979
977
975
974
974
977
978
979
981
980
978
976
974
973
974
975
978
980
981
981
979
976
974
973
973
974
976
979
980
978
977
978
976
974
974
976
979
980
981
980
978
974
972
971
971
974
977
978
979
979
977
976
973
972
972
974
977
979
980
979
978
975
973
972
973
975
977
979
980
980
978
976
973
972
974
975
978
979
980
979
976
974
973
971
973
975
978
979
978
977
975
974
974
973
973
973
977
979
979
978
977
973
970
971
974
977
980
984
985
985
985
985
986
986
987
989
988
988
990
992
992
991
993
994
996
1000
1002
1002
999
995
992
989
986
986
988
990
989
990
989
985
983
981
978
975
975
977
979
979
977
975
973
971
968
968
970
973
975
976
976
973
971
969
968
968
971
972
974
976
975
975
972
969
968
968
970
972
975
976
976
974
973
971
970
972
974
975
977
977
979
988
1006
1032
1061
1095
1129
1165
1193
1214
1207
1167
1117
1066
1028
1016
1015
1012
1004
991
968
949
932
920
914
911
910
914
920
925
928
930
935
941
948
956
964
973
978
982
985
985
983
982
983
984
987
990
992
994
994
992
989
988
988
990
992
994
998
998
997
995
994
993
993
993
996
999
1002
1003
1002
1001
999
998
998
999
1001
1005
1007
1008
1008
1006
1003
1001
1001
1003
1007
1010
1013
1014
1014
1013
1011
1010
1010
1013
1016
1019
1022
1023
1023
1022
1020
1020
1021
1024
1028
1032
1035
1036
1037
1037
1036
1036
1038
1042
1046
1050
1053
1055
1056
1056
1056
1056
1058
1061
1065
1069
1073
1075
1075
1073
1071
1070
1071
1073
1077
1080
1082
1081
1079
1075
1071
1069
1068
1067
1067
1066
1064
1061
1055
1050
1045
1040
1037
1035
1035
1033
1031
1028
1023
1018
1013
1009
1007
1007
1008
1008
1007
1005
1002
998
994
991
991
991
993
995
995
994
991
988
987
985
985
988
989
991
993
991
990
987
984
983
984
986
990
992
993
991
990
988
986
984
985
988
990
992
992
991
990
988
987
986
986
988
991
993
993
992
991
989
986
986
987
989
992
994
994
993
991
988
986
985
987
989
991
993
993
992
989
987
986
986
986
988
990
992
993
992
989
987
984
984
985
987
990
992
992
990
988
986
984
984
985
987
989
991
991
990
987
984
982
983
985
987
990
991
990
990
988
986
984
984
985
987
990
991
991
989
987
985
983
983
985
988
990
991
991
989
987
985
984
983
984
986
989
991
991
989
987
985
983
984
985
988
990
992
991
989
986
984
983
983
985
987
989
990
990
988
986
984
984
984
985
988
990
991
991
989
986
984
983
984
985
987
990
992
990
987
984
982
982
983
985
987
990
991
990
988
985
983
982
983
984
987
989
989
989
987
985
984
984
986
990
993
996
997
999
999
1000
999
997
996
996
998
1002
1003
1005
1008
1007
1005
1006
1008
1008
1009
1009
1007
1007
1006
1003
1000
998
996
996
998
999
999
997
995
992
989
987
987
987
988
989
989
988
986
983
981
981
981
984
987
988
989
988
985
983
982
980
982
985
988
989
988
987
984
982
981
981
984
987
989
991
991
990
988
988
988
987
987
990
992
993
1000
1017
1042
1073
1106
1141
1178
1213
1239
1241
1203
1152
1094
1047
1024
1017
1013
1006
992
971
952
936
924
916
912
915
921
926
933
938
944
951
958
964
969
975
983
990
994
999
1002
1000
998
996
995
997
998
1001
1004
1005
1004
1004
1002
1000
1000
1001
1004
1006
1008
1010
1010
1009
1007
1005
1004
1006
1006
1009
1011
1014
1013
1012
1009
1007
1006
1008
1011
1014
1018
1019
1019
1016
1014
1014
1013
1015
1018
1020
1022
1023
1023
1021
1020
1019
1019
1021
1024
1028
1031
1032
1033
1032
1032
1032
1032
1035
1039
1042
1045
1047
1048
1048
1047
1047
1049
1052
1057
1062
1064
1067
1068
1068
1066
1067
1069
1072
1077
1080
1083
1084
1084
1085
1084
1083
1083
1084
1086
1089
1091
1091
1090
1086
1083
1079
1076
1074
1073
1071
1068
1066
1061
1057
1052
1047
1043
1041
1039
1038
1035
1031
1028
1022
1018
1015
1012
1011
1011
1011
1009
1007
1004
1002
999
997
995
995
996
998
999
997
995
993
989
989
989
989
991
994
995
995
995
993
990
987
987
989
991
994
995
995
993
992
991
989
989
990
992
994
995
996
995
992
991
989
989
991
994
996
996
996
994
992
990
988
989
991
993
996
995
994
992
991
989
988
989
991
992
994
995
994
992
991
989
988
988
989
991
993
995
992
991
989
986
984
985
987
990
992
992
991
991
990
987
985
986
989
990
990
992
991
988
985
983
983
984
985
987
990
990
990
988
986
984
983
983
985
988
989
990
990
988
986
984
983
984
985
988
989
990
990
988
986
984
982
983
985
988
989
990
988
987
986
984
983
984
985
988
990
990
989
988
986
984
983
984
986
989
990
991
990
988
985
983
984
985
987
989
991
992
990
988
986
985
985
986
988
990
992
992
990
988
986
985
985
987
988
990
992
992
990
988
986
986
986
986
988
990
992
991
990
988
986
985
986
987
991
993
995
997
996
996
996
997
1000
1002
1003
1003
1001
1001
1001
1001
1002
1004
1006
1007
1011
1014
1013
1011
1008
1005
1003
1002
1002
1002
1003
1003
1002
1000
998
995
991
990
989
989
991
992
991
989
988
985
983
983
984
985
987
989
989
988
986
985
983
982
982
983
986
987
988
988
986
984
983
982
982
984
987
989
990
989
987
984
982
983
985
988
991
992
992
990
987
987
999
1021
1052
1088
1126
1163
1198
1223
1238
1216
1169
1116
1067
1034
1028
1025
1019
1005
984
961
943
931
924
921
923
925
928
930
932
935
940
948
959
970
979
986
990
992
993
993
992
993
995
998
1001
1003
1004
1003
1002
1000
999
999
1000
1002
1005
1008
1008
1008
1006
1005
1004
1002
1005
1007
1009
1010
1010
1009
1007
1006
1005
1005
1006
1010
1012
1014
1014
1013
1011
1011
1010
1010
1012
1015
1018
1019
1019
1019
1018
1017
1017
1017
1019
1022
1026
1028
1028
1027
1027
1027
1026
1028
1031
1034
1037
1040
1041
1041
1040
1040
1040
1042
1045
1049
1053
1057
1058
1058
1058
1059
1060
1063
1066
1070
1072
1076
1077
1077
1077
1077
1077
1078
1081
1084
1087
1088
1088
1087
1085
1081
1079
1079
1079
1079
1079
1076
1071
1066
1062
1056
1052
1049
1047
1046
1045
1042
1038
1033
1027
1022
1018
1016
1015
1014
1014
1012
1009
1005
1002
999
997
996
997
998
998
998
996
993
991
989
988
988
991
993
994
995
993
992
991
988
987
987
990
992
994
995
993
991
990
989
987
988
991
994
996
995
994
992
991
989
988
989
992
994
995
995
995
993
992
990
989
991
992
995
997
995
993
992
990
988
988
990
994
995
995
996
994
991
988
988
988
988
990
992
994
994
992
990
987
986
986
987
989
991
992
991
990
989
987
986
985
986
989
991
991
990
989
987
985
983
983
985
988
990
989
989
987
985
983
982
984
985
987
989
989
988
986
985
984
982
982
984
986
988
987
985
983
982
981
980
981
983
985
987
987
986
984
982
980
979
980
983
985
986
986
986
984
981
979
979
980
981
984
986
986
986
985
984
980
979
979
981
983
983
984
984
983
981
979
978
978
979
982
984
984
983
982
978
976
977
978
980
982
983
984
983
982
980
977
977
979
981
983
984
984
983
982
980
978
978
979
981
983
984
984
984
983
982
982
983
984
987
992
996
998
998
996
992
989
987
989
993
999
1005
1006
1005
1004
1003
1000
999
998
999
1002
1003
1004
1001
998
994
990
989
989
990
991
993
992
989
986
983
980
980
980
982
984
985
984
982
981
979
977
977
978
981
983
984
983
982
980
978
977
978
979
981
984
984
984
982
980
978
978
979
980
983
984
986
986
986
984
983
981
980
981
983
991
1009
1035
1064
1096
1128
1162
1192
1216
1226
1196
1149
1097
1052
1027
1021
1017
1009
999
981
964
949
936
927
922
918
918
921
928
935
940
947
954
961
967
972
978
984
988
993
997
998
999
997
995
993
993
995
999
1001
1002
1004
1003
1002
1000
999
1000
1001
1003
1005
1007
1007
1007
1005
1003
1002
1002
1004
1005
1008
1010
1010
1010
1009
1008
1007
1007
1008
1010
1012
1015
1016
1015
1014
1012
1011
1012
1014
1017
1019
1021
1022
1022
1022
1020
1020
1021
1024
1027
1029
1031
1032
1032
1032
1032
1031
1033
1036
1040
1043
1046
1048
1048
1048
1048
1048
1050
1054
1058
1062
1066
1067
1067
1066
1066
1067
1069
1072
1076
1079
1082
1083
1083
1081
1079
1078
1080
1081
1084
1085
1085
1084
1081
1077
1073
1069
1067
1065
1064
1063
1061
1057
1051
1046
1041
1036
1034
1033
1031
1029
1027
1023
1018
1015
1010
1006
1005
1005
1005
1005
1005
1003
1000
997
994
993
992
993
995
995
995
994
992
990
988
987
988
989
990
992
992
992
991
989
986
986
988
991
994
995
993
992
990
990
988
986
987
989
992
992
992
992
992
990
988
986
987
989
992
993
993
993
992
989
987
988
988
990
992
993
993
993
991
988
986
985
986
988
990
991
991
990
988
985
984
983
985
986
988
990
990
988
986
984
982
983
985
987
987
988
988
987
985
982
980
980
981
983
986
987
986
985
983
981
980
980
980
982
984
985
985
983
980
977
977
978
980
982
985
985
985
983
981
979
978
978
979
981
984
985
984
982
980
978
977
977
978
980
982
985
985
983
981
980
977
978
979
980
982
982
981
979
977
978
977
978
980
982
982
983
982
980
978
977
976
977
978
980
983
985
984
982
981
978
978
978
979
981
983
983
983
981
979
977
976
977
978
982
983
984
983
981
978
976
976
977
979
981
982
982
982
980
978
975
974
976
979
980
982
983
983
981
978
975
975
977
981
984
987
988
987
985
986
986
988
991
992
993
992
992
992
991
992
994
996
998
1001
1003
1003
1001
997
994
992
992
991
992
993
993
993
992
989
985
982
981
981
980
982
983
982
981
979
977
975
973
973
974
977
978
979
979
978
976
974
973
973
974
976
979
979
979
978
977
975
973
974
975
977
980
981
982
980
977
975
974
976
979
983
984
984
984
980
980
991
1012
1042
1075
1111
1147
1181
1206
1222
1207
1163
1113
1065
1032
1024
1023
1018
1007
989
966
947
932
923
921
920
921
923
926
929
930
932
939
948
958
968
976
982
985
986
987
987
988
990
993
995
998
999
997
996
996
995
995
995
998
1000
1003
1004
1003
1002
1000
999
999
1000
1002
1005
1007
1007
1007
1005
1004
1003
1003
1003
1006
1009
1011
1012
1012
1011
1009
1008
1008
1010
1012
1015
1017
1019
1018
1016
1015
1014
1015
1017
1020
1023
1026
1027
1026
1025
1025
1025
1025
1028
1032
1036
1038
1039
1040
1040
1039
1040
1041
1044
1048
1052
1056
1058
1058
1058
1058
1058
1061
1064
1068
1072
1075
1076
1077
1076
1075
1076
1078
1080
1083
1086
1087
1087
1087
1084
1081
1078
1078
1079
1078
1079
1077
1074
1069
1063
1057
1054
1051
1049
1047
1045
1042
1038
1033
1028
1023
1019
1017
1015
1015
1015
1014
1011
1007
1003
999
996
996
996
997
998
998
997
995
992
989
988
989
990
991
993
993
992
991
988
987
985
985
987
990
992
993
991
990
988
986
985
986
987
989
992
993
992
991
989
988
987
987
989
992
993
994
992
990
988
987
988
990
992
995
997
996
994
992
989
987
988
989
990
992
994
995
994
991
989
987
987
988
990
993
993
993
992
989
988
987
986
986
989
991
993
994
992
990
988
985
985
987
988
990
993
993
990
988
986
985
984
984
986
988
989
989
987
986
984
982
982
983
986
988
988
988
987
985
983
982
981
983
986
987
988
987
985
983
982
981
982
983
984
986
988
987
984
983
980
979
979
981
984
986
988
987
984
982
980
978
979
981
984
986
986
985
985
982
981
980
981
982
984
986
986
986
984
981
979
979
980
982
984
986
988
987
984
982
979
979
980
982
984
986
987
985
983
981
979
979
979
983
985
987
987
986
985
982
980
980
979
980
983
987
987
986
984
983
982
980
981
982
984
987
989
990
989
988
987
989
991
995
1000
1002
1001
999
995
992
993
994
999
1004
1008
1010
1009
1008
1005
1002
998
997
998
1001
1002
1003
1001
999
996
994
991
989
989
990
990
990
990
988
984
980
978
978
980
982
984
986
986
985
983
980
978
978
979
981
983
985
985
984
982
979
978
978
980
981
984
985
986
984
982
981
979
980
981
984
988
991
991
989
987
983
983
995
1018
1048
1082
1117
1150
1183
1208
1227
1215
1174
1127
1079
1044
1033
1027
1019
1007
987
965
948
937
930
926
925
924
924
926
930
932
938
947
958
968
975
981
985
987
988
989
992
996
998
1001
1002
1002
1001
1000
999
999
999
1001
1003
1006
1007
1007
1006
1003
1002
1002
1003
1005
1007
1010
1010
1010
1009
1007
1005
1005
1007
1009
1012
1014
1015
1014
1013
1010
1009
1010
1012
1014
1017
1019
1020
1019
1018
1017
1017
1017
1019
1021
1024
1026
1027
1027
1027
1027
1026
1027
1029
1032
1035
1038
1040
1041
1040
1039
1040
1041
1044
1047
1052
1055
1057
1058
1058
1058
1059
1061
1064
1068
1073
1076
1078
1079
1079
1078
1078
1080
1082
1086
1089
1092
1093
1092
1091
1088
1087
1086
1086
1087
1088
1088
1085
1081
1076
1071
1067
1063
1060
1059
1057
1054
1050
1045
1039
1034
1030
1027
1025
1024
1023
1022
1020
1016
1011
1007
1005
1002
1002
1003
1004
1003
1001
1000
996
994
992
992
993
995
996
997
996
994
992
990
988
988
989
992
994
994
994
992
990
988
987
987
989
992
994
995
995
993
991
989
988
988
990
993
995
996
995
993
991
990
989
989
991
994
995
996
995
993
992
989
988
989
992
994
995
995
994
993
990
989
988
989
991
993
994
995
994
992
990
989
988
988
990
993
994
995
994
992
989
987
986
988
989
992
993
993
992
992
990
988
988
989
990
992
993
993
992
990
987
985
985
987
989
991
992
993
992
990
987
986
986
986
989
990
992
992
991
989
986
984
985
987
988
991
992
991
989
988
986
984
984
986
988
989
991
991
988
986
984
983
984
986
987
989
991
991
989
986
984
983
983
984
987
989
990
989
988
986
983
981
982
985
987
988
990
989
987
985
983
982
983
984
986
988
988
988
986
983
981
981
982
984
985
987
989
988
986
984
982
981
981
983
986
987
989
988
985
982
982
981
982
984
986
989
992
992
990
989
990
992
995
998
1000
1000
999
998
996
995
996
999
1003
1005
1007
1010
1011
1008
1004
1000
998
997
999
1001
1002
1003
1001
998
996
992
989
989
990
990
991
993
990
987
985
983
980
980
982
985
986
988
988
986
983
980
979
980
980
982
984
986
986
986
985
983
982
982
982
983
985
986
986
984
982
980
979
979
983
987
990
991
991
990
986
985
995
1014
1043
1079
1114
1148
1182
1209
1228
1218
1178
1131
1081
1044
1031
1027
1020
1008
991
967
949
934
925
921
921
922
925
927
929
931
936
945
954
964
971
978
983
986
987
989
990
991
993
995
999
1001
1001
1000
999
997
997
996
998
1001
1004
1005
1005
1003
1001
1000
1000
1001
1003
1006
1008
1008
1008
1006
1005
1003
1003
1004
1007
1009
1011
1011
1011
1011
1009
1007
1008
1010
1012
1015
1017
1018
1018
1017
1016
1015
1016
1017
1019
1023
1025
1026
1026
1025
1025
1025
1025
1027
1030
1034
1037
1039
1039
1039
1039
1040
1041
1043
1047
1051
1055
1057
1058
1058
1059
1059
1061
1064
1068
1072
1075
1078
1079
1079
1079
1079
1080
1083
1087
1089
1092
1092
1092
1090
1088
1085
1085
1085
1086
1087
1086
1083
1079
1073
1068
1062
1058
1055
1053
1052
1050
1046
1042
1036
1031
1027
1024
1022
1022
1021
1020
1017
1014
1010
1006
1003
1002
1002
1003
1004
1003
1002
1001
999
996
994
994
995
996
999
999
999
997
995
993
991
991
993
995
997
999
998
996
994
992
991
992
993
996
998
999
998
997
995
993
992
992
994
996
998
999
999
997
995
993
992
993
994
997
998
999
999
997
995
994
993
993
995
997
997
998
998
997
995
992
992
993
994
996
998
998
997
995
993
991
991
992
993
996
997
997
996
994
992
990
989
990
992
994
995
995
995
993
991
989
989
990
992
994
995
995
994
992
990
988
987
989
991
993
994
995
994
992
989
987
987
987
989
992
993
994
993
991
989
988
987
988
990
991
993
993
992
990
989
987
986
987
990
992
993
993
992
990
988
986
987
987
990
992
993
992
991
990
987
986
985
986
988
990
991
992
992
990
987
987
986
987
989
991
993
992
991
989
987
985
985
986
989
992
993
994
993
991
989
987
986
988
989
990
991
993
992
989
986
987
987
989
990
991
993
992
992
991
990
990
992
995
998
1004
1007
1009
1007
1004
1000
998
999
1002
1005
1010
1014
1014
1013
1012
1010
1009
1007
1006
1009
1012
1013
1010
1006
1003
999
996
994
994
995
997
998
995
993
990
987
986
985
986
988
989
990
989
987
984
982
981
982
985
987
988
989
988
987
985
981
981
981
983
986
988
989
988
988
986
984
983
983
986
988
990
991
992
993
991
989
987
986
990
1006
1031
1060
1092
1124
1156
1190
1218
1237
1219
1178
1129
1078
1042
1029
1022
1014
1002
983
962
948
937
930
924
922
922
924
928
934
939
948
958
966
974
978
982
985
989
994
998
1001
1003
1003
1003
1002
1001
1001
1000
1002
1005
1007
1007
1007
1006
1005
1003
1004
1005
1007
1010
1011
1012
1011
1010
1009
1007
1007
1008
1010
1012
1014
1016
1017
1015
1013
1012
1011
1012
1015
1018
1021
1023
1023
1021
1020
1018
1018
1018
1021
1024
1026
1028
1028
1028
1027
1026
1025
1026
1030
1033
1037
1039
1041
1039
1038
1038
1038
1041
1045
1049
1052
1054
1056
1056
1056
1057
1058
1061
1065
1069
1073
1076
1077
1077
1077
1078
1079
1082
1085
1089
1091
1093
1094
1093
1093
1091
1090
1091
1093
1094
1094
1093
1091
1088
1083
1078
1074
1070
1069
1067
1065
1062
1057
1051
1045
1039
1035
1033
1032
1031
1029
1027
1024
1019
1015
1011
1008
1007
1007
1008
1008
1008
1006
1001
998
996
995
995
997
999
1000
999
998
996
993
991
991
991
993
996
998
997
996
994
992
991
991
993
995
997
999
998
998
996
994
993
993
993
996
998
999
999
998
997
995
994
995
996
998
1000
1001
1001
1000
998
996
995
995
996
998
1000
1002
1001
999
997
995
994
994
995
997
1000
1002
1000
999
997
994
993
993
993
996
997
998
998
997
995
993
992
992
993
996
997
998
997
996
993
991
990
991
993
995
997
997
997
995
993
991
990
990
992
994
997
996
996
995
992
990
989
990
991
994
995
996
996
994
992
990
989
990
993
994
996
996
996
994
992
990
990
991
992
994
996
996
995
993
992
990
989
989
992
994
995
996
996
994
991
990
989
990
992
995
996
996
996
994
991
990
990
991
993
995
996
996
996
994
992
990
989
990
992
995
996
996
995
993
991
990
990
991
992
995
996
996
995
994
992
990
990
990
993
995
997
999
999
999
998
998
1000
1003
1008
1012
1013
1011
1008
1004
1002
1003
1006
1011
1016
1019
1020
1021
1020
1016
1012
1009
1008
1010
1012
1014
1014
1012
1008
1004
1001
998
997
998
1000
1002
1002
1000
997
994
991
990
991
992
993
995
995
995
994
991
990
988
989
991
993
994
995
995
993
991
990
989
989
990
993
995
995
994
993
992
991
990
991
992
995
999
1001
1001
998
996
992
992
1002
1025
1055
1089
1124
1159
1195
1224
1246
1241
1200
1152
1098
1056
1037
1031
1023
1010
990
967
950
939
934
929
928
930
931
932
934
939
947
958
969
979
986
992
995
997
999
1000
1003
1006
1009
1011
1011
1010
1009
1008
1007
1007
1007
1010
1013
1015
1015
1015
1013
1011
1009
1009
1011
1013
1015
1017
1018
1017
1015
1014
1013
1013
1015
1018
1021
1022
1021
1021
1020
1019
1018
1019
1020
1022
1024
1026
1027
1027
1026
1025
1024
1024
1026
1030
1033
1035
1036
1035
1035
1033
1033
1035
1038
1041
1044
1046
1047
1047
1046
1046
1047
1050
1054
1057
1061
1065
1066
1066
1066
1067
1068
1070
1074
1079
1083
1086
1088
1089
1089
1089
1090
1091
1094
1097
1101
1103
1104
1102
1101
1100
1099
1100
1098
1098
1097
1096
1093
1089
1084
1079
1074
1071
1069
1067
1064
1061
1057
1051
1046
1040
1035
1033
1033
1033
1032
1029
1025
1020
1016
1013
1010
1009
1010
1011
1012
1011
1010
1007
1004
1002
1000
1000
1001
1003
1003
1003
1002
1000
998
997
996
997
999
1002
1003
1003
1002
1000
998
995
994
994
996
999
1001
1001
1001
1000
997
997
997
998
1001
1003
1003
1004
1002
1001
999
998
998
998
1000
1002
1003
1004
1002
1000
998
997
997
999
1001
1003
1003
1003
1002
1000
997
995
994
995
998
1000
1000
1000
999
997
995
994
993
994
996
998
1000
1000
997
995
993
992
992
993
995
997
998
998
997
995
993
991
992
993
995
998
998
998
995
993
992
991
991
993
995
996
997
997
995
993
992
991
991
992
994
996
997
996
995
992
991
990
990
992
994
996
997
996
995
992
991
990
990
992
994
997
997
996
994
992
990
989
990
992
994
996
996
996
994
993
991
990
990
992
994
996
997
996
995
992
991
991
992
993
994
996
996
996
994
992
991
990
991
993
995
997
997
996
994
992
990
990
990
992
994
996
996
995
994
992
990
990
991
993
995
997
998
998
997
996
995
997
999
1003
1007
1011
1012
1011
1007
1004
1002
1003
1006
1010
1016
1019
1019
1018
1017
1015
1012
1009
1009
1012
1015
1016
1015
1012
1009
1004
1000
999
998
1001
1002
1003
1002
1000
996
994
992
991
992
994
995
996
996
994
992
989
988
988
990
992
994
996
994
993
991
989
989
989
990
992
994
996
995
994
992
991
990
990
992
994
996
998
999
998
996
993
992
990
993
1007
1031
1062
1095
1129
1163
1197
1224
1245
1234
1192
1142
1089
1050
1036
1028
1019
1008
990
969
954
942
935
930
927
926
927
930
935
941
950
960
970
977
982
986
989
993
996
1000
1003
1006
1007
1008
1007
1006
1004
1004
1005
1008
1011
1013
1013
1012
1010
1009
1008
1008
1010
1012
1014
1015
1017
1016
1014
1013
1012
1012
1013
1015
1018
1020
1021
1020
1019
1017
1016
1016
1018
1021
1024
1026
1027
1027
1026
1024
1022
1022
1025
1028
1030
1032
1033
1033
1031
1030
1030
1031
1034
1037
1040
1043
1044
1044
1044
1044
1044
1045
1048
1052
1055
1058
1060
1061
1063
1064
1065
1066
1068
1071
1075
1079
1082
1082
1082
1082
1084
1085
1088
1093
1097
1099
1099
1099
1097
1097
1095
1095
1096
1097
1098
1099
1097
1094
1089
1086
1081
1076
1073
1073
1071
1068
1064
1058
1051
1046
1042
1039
1037
1036
1035
1032
1029
1024
1020
1017
1015
1013
1011
1011
1011
1011
1009
1006
1004
1000
999
999
999
1001
1003
1003
1002
1000
997
996
996
996
997
999
1001
1000
999
998
997
995
993
994
995
997
999
1000
999
997
994
994
994
994
995
999
1000
1002
1003
1001
998
995
995
995
996
998
999
1000
1000
1000
998
997
996
996
997
998
1000
1000
999
997
995
993
992
992
994
997
998
999
997
996
995
991
989
991
993
994
994
995
993
991
990
989
988
990
992
993
993
993
991
990
989
988
987
987
989
992
994
993
992
990
987
986
985
986
989
991
993
992
991
990
988
987
987
987
988
990
990
990
989
987
985
982
983
984
984
985
985
985
983
981
981
982
986
989
990
992
993
992
990
987
985
983
983
984
988
991
991
990
988
985
983
982
983
986
988
990
990
990
988
985
982
981
981
983
986
988
989
988
986
983
981
980
981
983
986
988
989
989
986
982
980
980
981
982
984
986
988
986
984
982
980
978
981
982
984
986
986
986
983
981
979
980
981
982
984
985
986
985
984
982
979
978
979
982
985
989
989
989
988
987
988
990
993
997
999
999
998
994
993
993
994
998
1003
1005
1007
1009
1009
1007
1002
999
997
997
999
1000
1002
1002
999
997
994
990
987
987
987
989
991
991
990
987
983
981
980
980
981
984
986
987
987
985
982
979
978
979
981
983
985
986
986
985
983
981
980
981
982
985
987
988
987
986
984
982
981
983
984
987
990
992
990
989
985
983
991
1010
1038
1072
1108
1144
1177
1203
1223
1223
1187
1140
1092
1051
1034
1031
1025
1016
1000
978
960
944
934
930
929
927
927
928
930
933
936
944
953
965
974
981
986
989
991
992
993
995
998
1001
1004
1005
1005
1003
1002
1001
1000
1002
1004
1007
1008
1009
1009
1008
1006
1004
1004
1006
1008
1011
1013
1014
1014
1013
1010
1009
1009
1011
1013
1016
1018
1018
1017
1016
1014
1013
1014
1016
1018
1021
1022
1023
1023
1023
1022
1021
1021
1022
1025
1029
1031
1032
1032
1032
1030
1030
1031
1033
1037
1041
1043
1044
1044
1044
1044
1044
1046
1048
1052
1057
1060
1062
1063
1063
1063
1064
1066
1069
1073
1078
1081
1082
1082
1082
1082
1083
1084
1087
1090
1093
1094
1095
1095
1093
1091
1090
1089
1089
1090
1091
1089
1087
1083
1077
1071
1066
1063
1062
1060
1058
1055
1051
1046
1041
1035
1031
1029
1028
1027
1027
1025
1022
1018
1014
1011
1008
1006
1007
1007
1008
1007
1006
1004
1001
1000
999
999
1000
1002
1003
1003
1002
1000
997
995
994
994
996
998
1001
1002
1001
999
997
995
996
994
996
999
1001
1003
1002
999
996
995
995
996
998
1000
1002
1002
1000
999
997
995
995
997
998
1000
1001
1001
1000
998
996
994
995
996
997
999
1001
1002
1000
999
997
995
995
994
996
998
1000
1000
999
998
996
994
992
993
995
997
998
998
996
994
992
991
991
993
994
995
996
996
995
993
991
990
991
991
993
995
996
996
995
993
991
989
989
989
992
993
994
995
993
991
989
988
988
989
991
994
996
995
993
991
988
986
987
988
989
991
993
993
992
990
987
987
988
990
992
993
992
991
989
987
986
985
985
988
990
992
993
992
990
989
987
986
985
986
989
991
991
990
988
986
984
984
983
984
987
990
991
991
988
986
984
983
983
985
988
989
990
988
987
985
984
983
983
984
987
988
989
988
987
985
983
983
983
985
987
989
989
988
986
983
982
982
983
984
987
988
989
988
988
987
986
986
988
991
996
1000
1002
1002
1001
997
993
992
995
999
1004
1009
1011
1010
1008
1007
1005
1003
1001
1002
1004
1007
1007
1005
1002
998
995
993
993
993
994
995
994
993
990
987
985
984
984
986
988
990
990
989
987
984
982
982
983
986
989
990
989
988
986
984
984
984
984
986
989
991
991
989
987
985
985
986
987
989
992
994
995
995
994
991
990
989
990
997
1016
1042
1074
1106
1139
1172
1202
1226
1237
1209
1164
1114
1067
1039
1031
1025
1017
1005
986
969
956
945
939
933
928
926
927
932
938
943
952
962
970
977
981
985
989
993
998
1002
1005
1008
1008
1007
1007
1005
1004
1005
1007
1010
1013
1014
1013
1013
1011
1009
1009
1010
1012
1014
1017
1018
1017
1017
1015
1013
1013
1014
1016
1019
1020
1021
1021
1020
1019
1017
1017
1019
1021
1024
1025
1026
1026
1025
1023
1023
1023
1025
1027
1030
1032
1033
1033
1032
1031
1031
1032
1034
1037
1040
1043
1045
1045
1044
1044
1043
1045
1048
1051
1056
1059
1060
1061
1061
1061
1061
1063
1067
1072
1076
1079
1081
1082
1083
1083
1082
1084
1087
1090
1094
1096
1097
1096
1095
1094
1093
1093
1095
1096
1097
1098
1097
1094
1089
1084
1080
1077
1075
1073
1071
1068
1065
1060
1055
1048
1044
1040
1038
1037
1036
1034
1031
1026
1021
1017
1013
1012
1011
1011
1011
1010
1008
1005
1003
1000
997
996
997
999
1001
1001
999
997
994
992
991
991
993
996
997
997
997
995
992
989
989
989
991
993
996
997
996
995
993
991
990
990
992
994
996
996
996
995
993
991
990
992
994
997
999
999
999
998
997
995
995
996
997
1000
1000
1000
999
998
996
994
993
994
997
999
1001
1001
998
997
994
992
991
993
995
997
998
999
999
996
993
991
990
991
993
995
997
998
996
994
993
991
990
991
992
994
996
997
996
994
992
990
990
990
992
993
993
993
992
991
990
989
989
989
989
992
993
993
992
990
988
986
987
987
989
992
993
994
993
990
987
986
987
989
990
991
992
993
992
991
989
987
986
987
991
993
994
992
990
988
986
984
985
987
989
991
992
990
989
987
984
984
984
986
990
991
991
991
988
986
984
984
986
986
988
989
990
991
990
987
983
983
983
986
988
989
990
990
987
986
984
982
982
984
986
986
988
987
986
985
983
981
982
985
986
989
991
991
990
988
987
988
993
998
1001
1003
1002
997
993
992
993
995
999
1005
1008
1008
1009
1007
1004
1001
998
998
998
1001
1002
1002
999
997
994
992
988
986
987
988
989
989
989
986
984
980
978
978
978
980
981
982
983
982
980
980
977
977
978
978
981
982
981
980
978
976
976
976
976
979
982
982
983
982
980
978
977
976
979
983
986
989
988
986
983
980
985
1001
1028
1060
1095
1131
1165
1195
1216
1224
1195
1150
1101
1057
1033
1029
1024
1014
1000
978
957
942
932
926
924
922
922
923
925
928
930
935
944
955
964
972
977
981
983
984
986
988
991
994
996
997
998
996
995
994
993
995
997
999
1001
1002
1003
1001
999
999
999
999
1002
1005
1006
1008
1007
1006
1004
1003
1003
1004
1006
1009
1011
1012
1012
1011
1009
1008
1008
1009
1012
1015
1017
1018
1018
1018
1016
1015
1015
1017
1020
1022
1024
1027
1027
1027
1025
1024
1025
1026
1030
1033
1036
1039
1038
1038
1039
1039
1041
1044
1048
1052
1056
1058
1059
1060
1060
1060
1063
1066
1070
1074
1077
1079
1080
1080
1080
1080
1081
1083
1087
1090
1093
1094
1093
1091
1089
1088
1087
1087
1087
1087
1087
1084
1080
1075
1069
1065
1061
1058
1056
1054
1052
1048
1043
1038
1032
1028
1025
1022
1022
1021
1020
1018
1014
1010
1005
1002
1001
1001
1002
1002
1002
1001
998
996
995
993
992
994
996
996
997
995
994
991
990
989
988
990
992
994
995
995
993
991
989
988
989
991
992
995
996
995
993
991
990
989
989
991
993
995
996
996
994
992
990
990
990
991
993
996
996
995
993
991
989
989
989
991
994
995
995
994
993
991
990
989
989
991
994
995
995
994
992
990
988
987
988
990
992
993
994
993
991
989
987
986
987
989
991
992
993
991
990
988
986
986
986
988
990
991
992
991
989
987
985
986
987
988
989
990
991
989
987
985
984
985
986
987
989
990
991
990
988
985
984
984
985
987
989
991
992
990
988
984
982
983
984
986
988
991
990
989
987
985
985
983
985
986
988
989
990
988
985
982
982
982
984
987
989
990
989
987
985
982
980
980
982
984
986
987
987
986
985
983
983
982
983
984
986
987
986
985
984
982
980
980
983
984
985
985
985
984
981
980
980
980
981
984
987
986
986
985
984
984
982
984
986
991
995
998
999
997
994
990
988
990
993
998
1004
1008
1007
1003
1001
999
996
996
997
1000
1001
1002
1001
996
993
990
988
987
987
987
988
989
987
984
981
979
976
975
978
981
981
981
981
979
975
974
972
973
975
977
979
979
979
976
974
973
973
973
975
979
981
980
978
976
974
974
974
975
977
980
981
983
984
983
979
977
977
976
982
1000
1026
1057
1090
1121
1156
1187
1212
1224
1198
1155
1104
1056
1027
1016
1008
998
987
968
951
937
927
920
913
910
910
913
917
921
927
934
943
952
959
963
968
972
976
979
983
986
988
989
987
986
984
984
986
987
991
993
994
993
992
990
989
989
988
990
993
995
996
996
994
992
991
991
992
994
998
999
1000
1000
998
996
995
994
996
999
1001
1003
1005
1005
1003
1001
1000
1002
1004
1006
1009
1009
1010
1009
1008
1008
1009
1009
1011
1014
1017
1018
1020
1020
1020
1019
1019
1021
1023
1026
1029
1033
1037
1038
1037
1037
1038
1040
1043
1048
1054
1058
1059
1058
1058
1058
1059
1061
1065
1069
1072
1074
1076
1075
1075
1075
1073
1072
1074
1076
1075
1075
1075
1072
1068
1063
1058
1054
1051
1049
1047
1044
1039
1034
1029
1023
1019
1016
1013
1012
1011
1008
1004
1001
997
993
990
989
987
987
988
987
984
981
978
976
976
975
975
976
978
979
977
975
973
971
970
970
971
973
974
975
974
972
969
968
967
967
969
972
974
975
975
973
972
970
969
969
971
973
976
977
976
974
973
971
971
972
972
975
977
978
977
975
974
972
971
971
973
976
978
979
979
977
975
973
972
972
974
976
977
977
978
977
974
972
971
971
973
975
977
978
977
975
973
972
971
971
973
976
978
978
977
976
973
971
971
971
973
975
976
976
975
974
972
971
970
970
973
975
976
976
976
974
971
969
969
970
972
975
976
976
975
973
972
970
969
970
973
975
977
977
975
973
970
969
969
971
974
976
977
977
976
974
972
971
971
971
973
975
976
976
975
973
970
969
970
971
973
976
977
976
975
974
971
971
971
971
973
976
977
976
975
974
972
971
971
973
976
977
978
979
977
973
971
971
972
972
975
977
977
978
978
978
977
976
977
981
986
990
993
993
991
988
983
982
983
987
993
999
1001
1001
1001
999
995
991
989
990
994
997
997
995
992
988
985
982
981
981
983
984
984
982
980
976
972
970
970
972
974
976
977
976
974
972
970
970
970
972
975
976
976
975
973
971
969
968
970
972
975
977
977
977
974
972
970
970
971
974
977
979
980
980
980
977
974
974
973
978
996
1022
1054
1088
1120
1154
1189
1216
1231
1208
1162
1109
1057
1024
1012
1005
996
983
962
942
929
919
913
908
907
908
912
915
920
927
937
948
958
964
968
972
975
978
982
986
991
993
993
992
991
989
988
989
991
994
996
998
998
997
995
994
993
994
996
998
999
1001
1001
1000
999
997
997
997
999
1001
1003
1006
1007
1006
1004
1002
1003
1003
1004
1007
1009
1010
1011
1010
1009
1009
1008
1009
1011
1015
1018
1018
1018
1019
1019
1018
1017
1019
1022
1026
1028
1030
1030
1030
1029
1029
1030
1032
1035
1039
1043
1047
1048
1047
1048
1049
1050
1053
1058
1063
1067
1068
1069
1070
1070
1070
1072
1076
1078
1081
1086
1088
1088
1087
1085
1084
1085
1086
1085
1088
1088
1086
1083
1078
1073
1069
1065
1061
1058
1056
1054
1050
1045
1040
1033
1028
1024
1021
1020
1019
1016
1013
1010
1007
1002
999
997
997
997
997
997
996
993
989
985
983
982
982
984
987
988
987
986
984
982
980
980
980
982
985
986
987
985
982
980
977
977
979
982
984
986
985
983
980
979
978
979
981
983
987
987
986
985
983
982
981
979
980
982
985
986
986
984
982
981
979
978
980
984
988
989
986
984
982
980
979
980
982
984
985
986
986
983
980
978
977
978
979
981
982
983
983
982
978
976
975
975
978
981
981
981
980
979
977
975
975
976
977
978
980
979
978
977
976
973
973
974
977
979
980
980
978
977
975
972
971
972
974
976
977
977
977
975
973
973
973
973
973
975
976
977
976
974
972
970
969
970
972
974
976
977
976
974
972
970
969
970
972
974
975
977
976
972
970
968
968
969
972
974
974
974
973
972
971
968
968
970
972
975
976
974
973
972
970
969
969
970
971
974
975
974
973
971
968
967
967
969
971
973
975
975
973
971
969
967
969
970
971
972
974
975
975
973
972
972
974
977
982
987
988
989
986
982
979
976
979
982
988
994
997
996
996
993
990
987
985
986
989
992
992
990
987
983
980
978
978
979
979
980
980
978
977
974
970
968
969
969
971
973
975
974
972
970
968
968
968
970
972
974
974
973
971
971
969
968
968
971
973
975
976
975
973
970
969
969
970
972
975
977
978
978
978
976
973
972
971
975
990
1014
1043
1074
1106
1139
1172
1199
1218
1207
1168
1120
1070
1032
1019
1014
1006
995
980
960
945
933
923
917
912
910
911
915
920
925
932
942
951
958
963
966
970
974
979
983
988
990
991
991
990
989
988
988
990
993
995
996
997
996
995
994
992
992
994
997
999
1001
1001
1000
999
998
996
997
999
1002
1005
1007
1007
1006
1004
1002
1002
1003
1005
1008
1011
1011
1012
1010
1009
1008
1007
1008
1011
1015
1017
1019
1019
1019
1018
1017
1016
1018
1020
1024
1027
1029
1030
1030
1029
1028
1029
1032
1035
1039
1042
1046
1047
1047
1048
1047
1048
1051
1056
1061
1064
1068
1069
1069
1070
1069
1070
1072
1076
1080
1083
1086
1086
1085
1084
1083
1083
1082
1084
1087
1087
1086
1083
1079
1075
1070
1067
1065
1062
1061
1059
1055
1050
1044
1038
1034
1030
1028
1027
1026
1024
1020
1017
1013
1008
1004
1001
1001
1001
1002
1001
1001
999
996
993
990
989
989
990
992
993
992
990
988
986
983
983
983
985
987
989
989
988
986
984
983
982
983
985
988
989
989
988
985
983
982
982
984
987
988
990
990
988
986
985
983
983
985
987
990
991
991
989
988
985
985
985
986
988
990
992
991
990
987
985
985
985
986
988
990
991
991
990
987
985
983
984
985
988
990
991
990
988
987
985
983
983
985
987
988
989
989
987
985
983
982
983
985
987
988
989
988
986
984
982
981
981
983
985
988
989
988
986
983
981
980
981
982
984
987
988
987
985
983
981
980
982
984
986
987
987
987
985
982
981
981
982
983
986
987
987
985
982
981
981
980
981
983
985
986
986
986
984
982
981
980
981
983
984
985
984
983
981
980
979
980
981
981
983
985
985
984
981
979
977
977
980
983
984
985
984
983
981
978
977
977
978
980
983
984
983
981
980
979
978
978
979
981
983
983
982
979
977
976
975
976
978
980
981
982
982
980
979
980
979
980
983
986
990
993
994
995
993
990
986
985
986
989
995
1001
1004
1004
1001
1000
999
996
995
995
996
998
999
996
993
989
987
987
987
987
987
988
987
984
981
977
975
975
975
977
978
978
977
976
974
973
972
972
973
976
978
979
977
974
973
972
971
973
975
977
977
978
977
976
974
973
972
972
973
975
977
978
977
976
976
976
977
977
979
980
980
985
1000
1023
1051
1082
1116
1152
1186
1213
1226
1199
1153
1101
1052
1024
1017
1012
1005
995
976
956
939
924
913
907
905
908
914
922
927
930
935
942
949
953
958
965
972
977
982
985
985
984
983
982
982
984
986
989
992
993
992
990
989
988
988
989
991
993
995
996
994
992
991
991
991
993
995
998
999
1000
999
997
996
995
995
999
1001
1003
1004
1004
1004
1002
1000
999
1001
1003
1005
1008
1011
1011
1010
1009
1008
1007
1009
1011
1014
1017
1020
1020
1019
1019
1019
1019
1021
1024
1028
1031
1035
1035
1035
1035
1035
1036
1039
1043
1048
1052
1055
1057
1057
1057
1058
1059
1062
1065
1069
1074
1076
1076
1076
1075
1075
1076
1078
1080
1083
1084
1084
1083
1080
1077
1073
1069
1067
1066
1065
1063
1060
1056
1050
1044
1038
1034
1031
1029
1028
1027
1024
1019
1014
1009
1005
1002
1001
1001
1000
1000
999
996
993
989
987
986
985
986
988
989
989
987
985
983
981
980
981
983
985
986
986
985
983
981
979
979
980
982
984
986
986
985
983
981
980
980
982
984
987
988
988
987
985
982
981
981
983
986
989
991
990
989
986
984
983
983
984
986
988
989
990
989
987
984
982
983
985
988
990
991
990
988
985
983
982
983
983
987
989
990
990
988
985
983
983
982
984
986
987
988
988
986
984
982
981
981
983
985
987
988
988
986
984
981
981
981
982
985
987
987
986
985
983
981
980
981
983
985
987
987
986
985
983
980
980
980
982
985
987
988
988
986
983
981
980
981
983
985
987
987
986
985
982
981
981
981
983
985
988
988
987
985
983
981
980
981
983
985
987
988
986
984
982
980
980
982
984
986
989
989
987
984
982
981
980
981
983
985
986
985
984
984
982
980
980
980
983
985
987
988
985
981
978
978
979
980
982
984
985
985
984
982
980
979
978
980
982
984
985
985
983
980
978
977
978
977
980
984
985
986
986
984
982
982
983
987
992
997
1000
999
996
992
988
987
988
994
1000
1004
1006
1006
1007
1003
998
996
995
997
997
999
1000
998
994
989
987
985
983
984
985
987
986
984
981
978
976
976
977
978
979
981
981
980
977
975
974
973
972
974
977
979
980
980
979
977
975
973
973
975
977
980
981
980
978
977
974
973
975
976
979
981
982
983
982
981
978
978
978
980
991
1013
1040
1071
1102
1134
1167
1195
1219
1219
1186
1143
1092
1048
1026
1019
1011
1001
987
966
948
935
926
919
915
913
914
916
922
926
932
942
952
959
965
968
971
974
979
983
988
991
992
992
990
988
987
987
990
994
996
997
996
994
993
992
991
991
992
995
998
1000
1000
999
998
995
993
994
996
999
1002
1003
1005
1004
1001
998
997
998
1001
1003
1006
1007
1008
1007
1006
1004
1004
1006
1007
1010
1013
1014
1015
1014
1014
1012
1011
1012
1015
1019
1021
1022
1024
1024
1023
1023
1023
1025
1030
1034
1037
1039
1041
1042
1041
1041
1042
1045
1050
1055
1059
1063
1063
1064
1063
1063
1065
1067
1069
1074
1078
1079
1080
1080
1079
1077
1076
1078
1080
1082
1083
1083
1080
1076
1072
1067
1064
1061
1059
1058
1056
1053
1048
1042
1036
1029
1024
1022
1020
1019
1017
1015
1011
1007
1004
998
995
994
995
996
995
993
990
987
985
982
981
981
983
985
985
984
983
981
978
977
977
978
979
982
984
984
982
979
978
977
976
977
979
982
983
984
982
981
979
978
977
977
980
984
986
986
984
982
980
979
979
981
984
985
986
985
985
984
982
980
981
983
984
986
988
988
987
984
983
982
981
983
986
988
989
989
988
986
983
982
982
983
985
987
988
988
986
984
982
981
981
983
985
986
987
987
986
984
982
980
980
982
984
986
988
987
985
983
980
979
980
981
984
986
986
986
984
982
981
981
981
983
985
986
988
987
985
983
981
980
980
982
985
986
987
986
984
983
982
982
982
983
985
986
987
986
984
982
981
981
981
983
985
986
987
986
984
982
981
980
981
983
985
986
988
988
985
982
980
980
981
983
985
987
987
987
985
983
981
981
981
983
987
988
988
987
985
983
982
981
982
985
987
988
988
988
986
984
982
981
982
985
987
989
989
987
986
985
984
985
987
990
994
998
1001
1002
1001
998
996
993
994
996
1000
1005
1009
1008
1006
1004
1003
1003
1003
1003
1003
1004
1005
1004
1001
998
995
992
992
993
993
993
993
991
987
984
982
981
981
983
984
986
985
983
981
979
977
978
979
982
984
984
983
982
980
978
977
978
979
982
984
984
983
982
980
979
978
978
980
983
985
986
985
984
983
983
982
983
985
987
988
990
1003
1025
1053
1086
1119
1155
1193
1222
1241
1222
1176
1123
1068
1030
1019
1014
1010
1001
983
961
944
930
919
912
911
916
923
929
933
937
944
951
958
965
972
978
984
990
995
997
998
997
996
995
996
997
999
1001
1003
1005
1004
1002
1000
999
999
1001
1003
1006
1008
1008
1008
1006
1003
1003
1004
1005
1006
1009
1012
1013
1013
1011
1009
1008
1009
1010
1011
1014
1016
1016
1016
1014
1013
1012
1014
1016
1019
1020
1022
1023
1023
1022
1021
1020
1020
1023
1026
1029
1032
1033
1033
1032
1031
1031
1032
1035
1038
1041
1045
1048
1050
1050
1049
1050
1053
1055
1061
1064
1066
1069
1070
1070
1070
1072
1074
1078
1081
1086
1089
1089
1090
1089
1089
1088
1088
1090
1093
1096
1097
1096
1095
1091
1087
1083
1082
1079
1078
1075
1073
1069
1062
1056
1052
1047
1043
1041
1040
1039
1035
1031
1025
1020
1014
1011
1010
1010
1009
1008
1006
1004
1001
999
996
993
993
993
994
996
997
995
992
990
988
986
986
988
990
991
992
991
988
986
985
986
987
989
990
991
991
988
986
985
984
984
984
986
988
990
991
991
989
987
985
984
985
987
990
991
990
988
987
985
984
985
986
987
990
992
991
990
988
987
986
985
986
988
989
991
991
989
987
985
983
982
984
986
986
987
987
986
983
982
981
981
981
984
985
986
985
984
982
980
978
977
979
980
983
985
985
984
981
978
977
977
978
981
984
985
984
982
980
977
976
977
979
981
982
983
982
981
978
976
975
976
977
980
982
982
982
980
977
976
975
976
978
980
982
983
983
981
979
975
974
976
978
979
981
983
983
981
979
977
976
977
979
981
982
983
982
981
979
977
976
977
980
982
983
984
983
982
980
978
978
978
979
982
983
983
983
982
980
978
977
978
980
983
985
985
984
982
980
979
978
979
981
983
984
985
985
984
983
982
983
985
988
991
994
997
999
999
997
994
992
992
994
998
1002
1006
1008
1006
1004
1004
1004
1003
1002
1003
1004
1004
1004
1001
999
995
993
993
994
995
996
996
994
990
987
985
984
984
985
987
988
989
987
984
982
982
981
983
985
987
988
987
986
984
982
981
982
983
985
987
989
988
987
986
984
983
984
984
987
989
991
991
990
988
988
988
987
988
991
991
995
1010
1032
1061
1094
1128
1164
1198
1225
1242
1220
1174
1121
1070
1036
1027
1023
1018
1008
990
970
952
938
928
922
920
923
927
934
939
944
950
957
963
969
975
982
989
994
999
1002
1003
1002
1001
1000
1000
1001
1004
1007
1010
1011
1010
1009
1007
1005
1006
1007
1009
1013
1015
1015
1015
1013
1012
1010
1009
1011
1013
1016
1017
1018
1018
1016
1015
1014
1014
1016
1018
1021
1023
1023
1023
1021
1020
1019
1020
1021
1024
1028
1030
1030
1030
1028
1028
1027
1028
1030
1033
1037
1039
1040
1041
1040
1039
1040
1042
1044
1048
1050
1053
1055
1056
1056
1056
1056
1059
1063
1066
1071
1075
1077
1078
1077
1077
1078
1080
1084
1088
1092
1095
1096
1096
1095
1094
1094
1095
1097
1101
1103
1104
1102
1100
1097
1092
1088
1087
1085
1084
1083
1081
1076
1071
1064
1058
1054
1051
1049
1048
1046
1044
1041
1036
1030
1025
1021
1020
1019
1019
1019
1018
1016
1013
1009
1006
1005
1004
1005
1007
1007
1007
1007
1005
1002
999
999
999
1001
1002
1003
1004
1004
1001
999
997
997
997
999
1001
1004
1005
1004
1002
1000
998
997
999
1001
1003
1005
1006
1005
1003
1001
1000
999
1000
1002
1004
1006
1006
1004
1002
1000
998
999
1000
1001
1004
1006
1007
1005
1004
1001
999
999
1000
1002
1004
1005
1005
1004
1002
1000
999
999
1000
1002
1004
1006
1006
1004
1002
1000
998
998
999
1001
1004
1005
1005
1003
1001
998
997
997
998
1001
1003
1004
1005
1003
1000
998
996
995
997
1000
1002
1003
1002
1001
1000
999
997
997
998
1000
1002
1002
1003
1001
1000
998
997
997
998
1000
1002
1002
1001
999
998
996
995
995
997
999
1001
1002
1001
1000
998
995
994
995
997
999
1000
1002
1001
999
997
996
994
994
996
999
1000
1001
1000
998
996
994
993
995
996
999
999
999
999
997
994
992
992
993
995
998
1000
1000
999
998
996
994
993
993
995
998
999
999
999
997
994
993
992
993
995
998
1000
999
999
998
994
992
992
992
993
996
999
1001
1001
999
997
998
999
1002
1007
1010
1013
1012
1009
1005
1002
1002
1004
1008
1015
1019
1021
1021
1020
1017
1013
1009
1007
1008
1011
1014
1014
1013
1010
1006
1003
1000
998
998
1001
1002
1001
1000
998
995
990
988
989
990
992
996
997
995
993
991
989
988
987
989
992
994
994
994
992
990
988
987
987
988
991
993
994
993
993
991
991
989
989
991
993
995
998
998
997
994
992
990
991
1000
1021
1049
1080
1113
1146
1178
1207
1227
1231
1199
1156
1108
1065
1043
1037
1029
1019
1006
984
966
954
945
938
933
931
930
928
931
936
942
952
963
972
978
983
987
989
991
995
999
1003
1005
1006
1006
1004
1002
1002
1002
1003
1006
1008
1010
1011
1010
1009
1007
1005
1005
1006
1008
1012
1014
1015
1014
1013
1012
1010
1010
1011
1014
1016
1018
1019
1017
1015
1014
1013
1013
1015
1018
1021
1022
1023
1022
1020
1020
1019
1019
1022
1025
1028
1030
1031
1030
1028
1027
1027
1029
1031
1035
1037
1040
1041
1042
1042
1040
1041
1042
1045
1049
1053
1057
1059
1060
1059
1059
1061
1063
1067
1071
1076
1079
1081
1082
1081
1081
1082
1084
1087
1091
1095
1097
1098
1098
1097
1095
1094
1094
1095
1097
1098
1098
1096
1092
1088
1083
1079
1075
1073
1072
1070
1067
1063
1057
1051
1046
1041
1038
1037
1036
1035
1033
1029
1025
1021
1018
1015
1013
1013
1014
1014
1014
1011
1009
1006
1003
1001
1002
1002
1004
1005
1006
1005
1002
1000
998
998
998
999
1002
1003
1003
1003
1002
1000
999
998
999
1001
1003
1005
1006
1005
1003
1001
1000
1000
1001
1002
1004
1006
1007
1006
1005
1002
1001
1001
1001
1003
1006
1007
1008
1007
1005
1003
1001
1001
1002
1004
1007
1009
1009
1007
1005
1002
1001
1001
1002
1004
1006
1007
1007
1006
1004
1002
1001
1000
1002
1003
1005
1007
1006
1005
1004
1002
1000
1000
1001
1003
1005
1006
1006
1005
1003
1000
999
999
999
1002
1005
1006
1006
1004
1002
1001
999
998
1000
1002
1004
1005
1004
1002
1001
999
997
998
1000
1002
1005
1006
1005
1004
1000
998
997
998
999
1002
1004
1005
1005
1003
1001
999
998
999
1000
1002
1004
1005
1004
1003
1001
999
998
998
1000
1002
1004
1005
1005
1004
1001
998
997
998
1001
1002
1003
1004
1003
1002
1000
998
997
998
999
1002
1003
1005
1004
1002
1001
999
999
999
1000
1002
1004
1005
1004
1002
1000
998
997
998
1000
1002
1004
1005
1004
1003
1001
999
998
998
1000
1002
1003
1003
1001
1000
998
996
997
998
1000
1002
1004
1004
1004
1003
1001
1002
1003
1004
1008
1011
1014
1017
1018
1018
1016
1014
1011
1010
1012
1017
1021
1025
1026
1024
1022
1022
1022
1022
1023
1022
1023
1024
1023
1020
1017
1014
1012
1012
1012
1013
1012
1012
1011
1008
1004
1001
1001
1002
1003
1004
1003
1003
1001
999
998
997
997
998
1000
1002
1003
1003
1001
998
996
996
995
996
998
1001
1002
1000
999
997
996
994
994
996
999
1000
1002
1001
999
999
999
999
999
1000
1002
1002
1003
1013
1033
1060
1092
1126
1161
1198
1228
1252
1244
1201
1149
1095
1054
1038
1033
1029
1021
1006
983
965
951
940
932
929
931
936
942
947
951
955
963
971
978
983
989
997
1003
1008
1010
1011
1010
1009
1008
1008
1011
1014
1016
1018
1018
1017
1015
1015
1013
1013
1013
1016
1019
1022
1024
1022
1019
1018
1017
1017
1018
1021
1023
1025
1026
1025
1024
1022
1021
1022
1024
1027
1029
1029
1030
1030
1028
1027
1025
1026
1028
1031
1034
1035
1036
1035
1033
1033
1033
1034
1036
1040
1042
1043
1045
1047
1046
1045
1044
1046
1048
1052
1055
1059
1061
1061
1060
1060
1061
1063
1067
1071
1075
1079
1081
1082
1082
1081
1082
1085
1088
1094
1098
1101
1102
1102
1102
1100
1100
1102
1105
1109
1111
1112
1110
1108
1104
1100
1097
1095
1093
1092
1091
1088
1085
1080
1074
1067
1063
1059
1056
1054
1052
1050
1046
1042
1036
1030
1028
1026
1025
1024
1024
1024
1021
1017
1013
1010
1009
1009
1009
1010
1012
1012
1010
1007
1005
1003
1002
1002
1003
1005
1006
1006
1005
1003
1000
999
999
999
1001
1003
1005
1005
1005
1003
1000
999
998
999
1001
1004
1006
1006
1005
1004
1002
1000
998
999
1002
1005
1007
1007
1007
1005
1003
1001
1000
1001
1004
1006
1007
1008
1007
1005
1003
1001
1001
1002
1004
1005
1007
1008
1006
1005
1004
1001
1000
1001
1003
1005
1006
1007
1006
1004
1001
999
999
1001
1003
1005
1007
1006
1005
1003
1000
999
999
1001
1003
1005
1006
1006
1003
1001
999
998
999
1000
1002
1004
1005
1005
1005
1003
1001
999
999
1001
1002
1005
1006
1006
1004
1003
1001
999
999
1001
1003
1006
1007
1006
1004
1003
1000
1000
1001
1002
1005
1007
1007
1006
1004
1002
1001
1000
1000
1002
1004
1005
1006
1006
1005
1003
1001
1000
1000
1002
1005
1007
1007
1007
1005
1003
1001
1001
1001
1003
1006
1008
1008
1007
1006
1003
1001
1000
1001
1003
1006
1008
1009
1008
1006
1004
1002
1001
1002
1004
1006
1007
1008
1008
1007
1004
1002
1001
1003
1005
1007
1008
1008
1008
1006
1005
1004
1004
1006
1009
1013
1015
1016
1018
1018
1019
1018
1017
1017
1016
1018
1022
1024
1027
1028
1028
1026
1026
1028
1028
1029
1029
1028
1026
1025
1023
1020
1019
1018
1018
1019
1019
1018
1016
1014
1010
1008
1008
1008
1008
1009
1010
1010
1008
1006
1004
1003
1003
1004
1007
1008
1009
1009
1007
1005
1003
1002
1002
1003
1006
1007
1008
1009
1008
1006
1004
1003
1003
1005
1006
1009
1011
1011
1009
1007
1006
1005
1007
1009
1011
1013
1014
1012
1011
1020
1040
1067
1101
1137
1175
1214
1244
1264
1252
1207
1154
1100
1060
1047
1045
1041
1031
1012
988
968
953
943
937
939
944
949
953
956
957
962
970
978
987
996
1004
1011
1015
1017
1018
1018
1017
1017
1019
1020
1023
1026
1027
1026
1025
1023
1022
1022
1023
1024
1028
1030
1031
1031
1030
1027
1026
1026
1027
1029
1031
1034
1035
1034
1032
1030
1029
1029
1030
1033
1036
1038
1038
1038
1037
1036
1034
1034
1036
1039
1041
1043
1045
1044
1043
1041
1041
1042
1043
1047
1051
1052
1052
1053
1052
1051
1052
1053
1055
1059
1063
1065
1066
1067
1068
1067
1068
1070
1073
1078
1082
1086
1087
1089
1089
1089
1090
1092
1096
1100
1104
1107
1108
1109
1109
1109
1109
1111
1114
1117
1120
1121
1120
1119
1116
1114
1112
1110
1110
1111
1110
1107
1103
1097
1091
1085
1080
1076
1073
1072
1070
1068
1064
1059
1053
1047
1043
1040
1039
1040
1040
1039
1036
1033
1029
1026
1023
1022
1022
1023
1024
1023
1022
1021
1018
1015
1013
1013
1014
1015
1017
1017
1017
1015
1013
1012
1011
1012
1013
1015
1017
1017
1016
1015
1013
1012
1011
1011
1013
1015
1016
1016
1017
1016
1013
1011
1011
1012
1014
1015
1018
1019
1017
1015
1012
1010
1009
1010
1013
1015
1016
1017
1016
1015
1013
1011
1010
1010
1012
1015
1017
1017
1017
1015
1013
1010
1008
1010
1012
1013
1014
1014
1013
1012
1010
1008
1006
1006
1009
1012
1014
1014
1012
1009
1007
1006
1005
1007
1008
1010
1012
1013
1010
1009
1006
1005
1006
1007
1008
1010
1011
1011
1010
1007
1005
1004
1004
1005
1006
1008
1009
1010
1008
1006
1004
1003
1003
1005
1007
1007
1007
1007
1006
1004
1002
1000
1001
1003
1005
1008
1009
1007
1005
1003
1000
999
1000
1002
1004
1005
1007
1006
1004
1002
1002
1001
1002
1002
1004
1005
1006
1005
1003
1001
1000
999
999
1000
1003
1005
1005
1005
1004
1002
1001
1000
999
1000
1002
1003
1004
1005
1003
1002
999
998
999
999
1000
1002
1004
1004
1002
1000
998
997
998
1001
1003
1005
1006
1004
1002
1000
998
997
997
999
1001
1003
1004
1004
1001
999
997
996
997
999
1002
1005
1007
1007
1005
1003
1002
1004
1008
1013
1016
1017
1017
1013
1010
1009
1010
1012
1016
1021
1024
1026
1026
1024
1021
1016
1013
1013
1014
1017
1018
1019
1018
1015
1012
1009
1006
1004
1005
1007
1008
1008
1007
1004
1001
998
996
996
998
1000
1003
1004
1003
1001
999
997
996
996
998
1000
1002
1003
1002
1001
999
997
996
997
998
1000
1002
1004
1004
1004
1002
1000
998
999
1000
1003
1006
1008
1009
1009
1006
1004
1003
1003
1006
1022
1046
1076
1108
1141
1173
1205
1230
1247
1232
1192
1144
1096
1063
1052
1046
1037
1025
1008
988
974
963
955
950
946
943
943
946
952
956
963
972
982
990
995
999
1003
1006
1011
1014
1018
1021
1023
1023
1022
1020
1019
1019
1020
1023
1026
1029
1029
1029
1028
1025
1023
1024
1025
1028
1030
1032
1034
1034
1032
1029
1027
1027
1028
1031
1033
1035
1035
1035
1033
1032
1033
1035
1036
1038
1041
1043
1043
1043
1041
1041
1040
1040
1042
1043
1046
1049
1050
1050
1049
1048
1047
1048
1051
1054
1057
1060
1061
1062
1061
1060
1060
1062
1065
1069
1072
1076
1077
1078
1079
1079
1079
1082
1085
1089
1093
1096
1099
1099
1099
1099
1099
1101
1104
1107
1110
1113
1114
1114
1113
1111
1110
1110
1112
1113
1115
1114
1113
1109
1104
1099
1095
1092
1091
1089
1088
1085
1080
1075
1070
1064
1059
1055
1054
1053
1052
1050
1047
1042
1038
1034
1031
1030
1030
1030
1030
1030
1027
1025
1023
1019
1017
1017
1018
1019
1021
1021
1021
1018
1016
1013
1012
1013
1015
1017
1018
1019
1019
1017
1015
1013
1012
1013
1015
1017
1018
1019
1018
1018
1016
1014
1013
1014
1015
1018
1019
1021
1020
1019
1017
1016
1015
1015
1017
1020
1022
1023
1021
1020
1018
1017
1016
1016
1018
1021
1022
1022
1021
1019
1017
1016
1016
1016
1017
1018
1020
1021
1020
1018
1016
1014
1014
1015
1017
1020
1022
1022
1020
1018
1016
1014
1013
1015
1016
1018
1020
1021
1018
1016
1015
1014
1013
1014
1016
1018
1020
1020
1018
1017
1013
1011
1010
1011
1014
1015
1016
1017
1016
1013
1011
1009
1010
1011
1014
1016
1018
1018
1016
1014
1012
1010
1010
1010
1012
1015
1016
1017
1016
1014
1011
1010
1009
1010
1013
1015
1015
1015
1013
1010
1009
1007
1007
1008
1011
1014
1015
1015
1013
1010
1008
1007
1008
1010
1011
1014
1015
1014
1011
1008
1007
1006
1007
1009
1010
1011
1012
1013
1011
1010
1007
1006
1006
1009
1010
1012
1012
1012
1011
1009
1006
1005
1005
1007
1010
1011
1012
1011
1009
1007
1005
1004
1006
1008
1010
1012
1012
1010
1007
1006
1005
1004
1004
1005
1009
1011
1011
1009
1006
1005
1004
1004
1004
1005
1007
1009
1011
1010
1010
1010
1009
1009
1013
1016
1020
1024
1025
1021
1017
1014
1012
1012
1016
1024
1030
1031
1030
1028
1026
1022
1019
1018
1018
1021
1024
1025
1024
1021
1018
1013
1012
1010
1008
1010
1012
1013
1011
1008
1005
1002
1000
999
999
1002
1005
1005
1005
1003
1001
999
998
997
999
1001
1003
1004
1004
1003
1001
999
997
997
998
1001
1003
1004
1005
1003
1002
1000
999
998
1000
1002
1004
1006
1006
1006
1005
1003
1001
1002
1002
1004
1018
1040
1067
1098
1130
1163
1197
1224
1245
1239
1202
1154
1104
1066
1050
1045
1038
1028
1013
994
978
964
953
945
940
937
937
940
945
951
958
966
975
982
986
989
993
999
1004
1008
1012
1014
1014
1013
1011
1010
1011
1012
1013
1017
1019
1020
1019
1017
1016
1015
1015
1016
1018
1021
1022
1023
1023
1021
1019
1018
1018
1019
1021
1025
1027
1027
1026
1025
1024
1024
1024
1025
1026
1028
1030
1031
1031
1030
1029
1027
1027
1030
1033
1036
1038
1038
1038
1038
1036
1035
1036
1037
1040
1044
1047
1050
1049
1048
1048
1047
1049
1052
1056
1060
1063
1065
1066
1066
1066
1067
1069
1072
1077
1082
1085
1087
1087
1087
1088
1089
1091
1094
1098
1101
1104
1107
1107
1106
1105
1104
1105
1106
1109
1110
1111
1111
1108
1104
1101
1096
1094
1092
1090
1088
1085
1081
1075
1069
1063
1058
1056
1053
1052
1050
1049
1045
1041
1037
1033
1029
1028
1027
1027
1027
1027
1025
1022
1018
1016
1013
1013
1014
1015
1017
1017
1017
1016
1014
1011
1009
1009
1011
1013
1015
1016
1016
1013
1010
1009
1008
1008
1010
1014
1015
1016
1016
1015
1013
1011
1009
1011
1013
1015
1017
1018
1017
1016
1014
1012
1012
1013
1014
1016
1018
1019
1018
1016
1014
1012
1012
1014
1015
1017
1018
1019
1019
1017
1015
1014
1013
1014
1016
1018
1020
1020
1019
1017
1015
1014
1013
1014
1016
1017
1018
1019
1018
1016
1014
1013
1012
1013
1014
1017
1018
1018
1018
1016
1014
1013
1012
1012
1014
1016
1018
1018
1016
1014
1012
1011
1010
1012
1014
1017
1018
1018
1017
1015
1013
1011
1011
1012
1014
1017
1018
1018
1016
1014
1012
1011
1011
1012
1014
1016
1017
1016
1016
1014
1013
1011
1011
1013
1014
1016
1018
1017
1015
1013
1011
1010
1010
1012
1014
1017
1018
1017
1015
1013
1012
1011
1011
1013
1015
1017
1016
1016
1014
1012
1011
1010
1011
1012
1015
1017
1018
1018
1018
1014
1011
1011
1012
1013
1014
1016
1017
1016
1015
1014
1011
1010
1010
1012
1015
1017
1018
1017
1016
1014
1011
1010
1010
1012
1015
1016
1016
1016
1014
1013
1012
1010
1010
1012
1014
1017
1018
1018
1017
1015
1014
1013
1015
1019
1023
1025
1027
1028
1028
1027
1025
1022
1022
1025
1029
1032
1036
1037
1035
1033
1033
1033
1033
1033
1033
1034
1034
1033
1032
1028
1025
1023
1022
1022
1023
1024
1024
1022
1019
1015
1013
1012
1012
1013
1015
1016
1015
1014
1013
1011
1009
1009
1009
1010
1013
1015
1016
1015
1014
1010
1008
1008
1009
1010
1013
1014
1013
1012
1011
1010
1009
1010
1011
1013
1015
1016
1016
1016
1015
1014
1013
1015
1016
1017
1019
1019
1019
1028
1046
1069
1099
1132
1168
1207
1239
1263
1260
1222
1175
1121
1077
1059
1055
1051
1043
1028
1005
984
967
954
947
944
947
953
959
965
967
970
975
982
990
997
1005
1013
1020
1023
1026
1026
1024
1022
1022
1023
1025
1028
1030
1030
1031
1031
1031
1029
1028
1028
1029
1032
1034
1036
1036
1035
1032
1031
1031
1031
1033
1036
1039
1039
1040
1038
1035
1034
1034
1035
1038
1041
1044
1043
1043
1041
1040
1040
1039
1040
1043
1045
1047
1048
1048
1047
1046
1046
1046
1048
1051
1054
1056
1057
1057
1056
1056
1056
1058
1059
1062
1066
1069
1072
1073
1073
1073
1074
1075
1078
1082
1087
1091
1092
1092
1094
1094
1095
1096
1101
1106
1110
1113
1115
1115
1114
1114
1114
1115
1118
1121
1124
1125
1125
1123
1121
1119
1116
1114
1113
1111
1111
1108
1104
1098
1093
1087
1082
1078
1075
1073
1072
1070
1066
1059
1054
1048
1045
1042
1041
1040
1041
1041
1038
1035
1030
1026
1024
1022
1022
1023
1025
1025
1024
1022
1020
1018
1016
1015
1016
1018
1020
1021
1019
1018
1017
1015
1014
1013
1014
1017
1018
1019
1019
1017
1014
1012
1012
1013
1016
1017
1020
1021
1021
1020
1018
1015
1014
1015
1017
1020
1022
1022
1022
1019
1017
1016
1015
1015
1018
1020
1022
1022
1023
1022
1019
1017
1016
1017
1019
1020
1022
1022
1022
1020
1019
1016
1015
1017
1019
1021
1022
1022
1021
1019
1018
1017
1016
1017
1019
1021
1022
1022
1022
1020
1017
1016
1015
1016
1018
1020
1021
1021
1021
1019
1017
1016
1016
1016
1019
1021
1022
1022
1020
1019
1017
1015
1014
1016
1018
1019
1020
1022
1020
1019
1017
1015
1015
1016
1018
1020
1022
1021
1020
1019
1018
1016
1015
1017
1019
1021
1022
1022
1021
1019
1017
1016
1016
1016
1019
1022
1023
1023
1022
1019
1017
1016
1016
1017
1019
1022
1022
1022
1021
1019
1017
1016
1016
1018
1020
1022
1023
1023
1021
1019
1017
1017
1018
1019
1021
1023
1024
1023
1023
1021
1019
1018
1017
1019
1021
1022
1023
1023
1022
1020
1018
1017
1018
1020
1023
1024
1025
1024
1022
1021
1021
1022
1024
1026
1029
1031
1033
1035
1036
1037
1035
1033
1032
1032
1034
1038
1040
1043
1045
1044
1042
1043
1043
1044
1044
1043
1042
1042
1041
1039
1037
1034
1032
1033
1033
1034
1034
1032
1030
1027
1024
1023
1022
1022
1023
1024
1024
1024
1022
1020
1018
1019
1019
1021
1022
1024
1024
1023
1021
1020
1018
1018
1020
1022
1024
1025
1025
1023
1021
1019
1018
1019
1020
1022
1025
1027
1027
1026
1024
1022
1022
1023
1025
1027
1029
1029
1028
1028
1035
1053
1079
1111
1146
1184
1222
1255
1278
1275
1234
1184
1129
1085
1067
1063
1059
1050
1032
1008
987
971
959
954
953
957
963
967
971
972
976
983
991
1000
1008
1016
1024
1029
1032
1033
1033
1033
1032
1034
1036
1038
1041
1042
1041
1040
1039
1038
1037
1037
1039
1041
1044
1046
1047
1045
1042
1040
1039
1040
1042
1045
1048
1049
1049
1047
1046
1045
1044
1046
1047
1050
1051
1052
1052
1053
1051
1049
1049
1050
1053
1056
1058
1059
1059
1058
1056
1055
1055
1056
1059
1063
1065
1066
1067
1066
1064
1064
1065
1067
1070
1074
1078
1080
1081
1081
1080
1080
1082
1086
1089
1094
1099
1101
1103
1103
1103
1103
1106
1109
1113
1118
1121
1123
1125
1124
1124
1124
1124
1125
1128
1131
1134
1135
1135
1133
1130
1127
1126
1124
1123
1122
1120
1116
1112
1106
1099
1095
1090
1087
1086
1084
1082
1078
1073
1068
1061
1056
1054
1053
1053
1054
1052
1048
1044
1040
1037
1035
1034
1032
1033
1035
1035
1034
1031
1028
1026
1025
1025
1026
1028
1029
1029
1028
1026
1023
1021
1021
1021
1023
1026
1028
1029
1027
1026
1025
1023
1022
1021
1022
1024
1026
1027
1027
1027
1024
1022
1022
1021
1022
1024
1026
1026
1027
1026
1025
1023
1021
1021
1022
1025
1027
1028
1027
1026
1024
1022
1021
1021
1023
1025
1027
1028
1027
1024
1021
1020
1019
1019
1021
1023
1024
1024
1024
1023
1020
1017
1017
1018
1019
1021
1022
1022
1021
1020
1018
1016
1014
1014
1017
1019
1021
1021
1021
1018
1016
1016
1015
1015
1015
1017
1019
1019
1018
1016
1014
1012
1012
1012
1014
1016
1017
1018
1017
1015
1013
1011
1011
1011
1012
1014
1015
1016
1015
1015
1013
1011
1010
1010
1012
1013
1015
1015
1013
1010
1009
1008
1007
1008
1010
1012
1015
1015
1012
1010
1009
1008
1008
1009
1010
1012
1013
1013
1011
1010
1008
1006
1006
1007
1009
1010
1012
1012
1012
1010
1007
1005
1005
1006
1008
1010
1012
1010
1010
1008
1005
1004
1005
1006
1009
1011
1012
1011
1009
1007
1006
1004
1004
1005
1007
1009
1010
1010
1009
1007
1005
1004
1005
1006
1008
1010
1011
1010
1008
1007
1006
1006
1008
1010
1013
1016
1018
1021
1022
1022
1020
1019
1017
1017
1018
1022
1025
1027
1029
1029
1027
1027
1027
1027
1028
1028
1028
1027
1026
1024
1021
1018
1018
1018
1020
1021
1020
1018
1016
1013
1011
1010
1010
1009
1011
1012
1013
1011
1009
1006
1005
1004
1005
1007
1010
1011
1012
1011
1009
1007
1005
1005
1006
1008
1010
1012
1011
1010
1009
1008
1007
1006
1008
1010
1012
1014
1015
1014
1012
1011
1011
1012
1014
1015
1016
1018
1017
1015
1023
1041
1067
1100
1135
1172
1209
1239
1261
1257
1217
1168
1117
1075
1059
1058
1054
1045
1029
1005
985
968
957
950
948
950
954
958
963
965
968
973
981
989
998
1006
1014
1019
1022
1023
1024
1024
1024
1024
1025
1028
1031
1033
1033
1032
1031
1029
1029
1030
1032
1034
1037
1038
1038
1037
1035
1033
1034
1034
1036
1038
1041
1042
1043
1041
1039
1037
1036
1038
1040
1043
1045
1047
1047
1047
1045
1043
1042
1044
1046
1048
1051
1052
1052
1051
1050
1049
1049
1050
1053
1056
1059
1061
1062
1062
1061
1060
1061
1063
1064
1069
1073
1075
1076
1077
1076
1075
1076
1079
1083
1088
1092
1095
1097
1097
1097
1098
1100
1102
1106
1110
1114
1117
1118
1118
1117
1116
1117
1120
1122
1125
1128
1129
1128
1127
1124
1122
1120
1119
1119
1118
1117
1114
1109
1103
1098
1092
1088
1085
1084
1082
1080
1076
1071
1066
1061
1057
1054
1053
1052
1052
1051
1049
1046
1043
1039
1036
1034
1033
1034
1036
1037
1036
1034
1031
1028
1026
1025
1027
1028
1030
1032
1031
1029
1027
1025
1023
1023
1025
1027
1029
1031
1030
1029
1028
1025
1023
1024
1025
1026
1029
1030
1029
1028
1026
1026
1024
1025
1026
1028
1030
1030
1030
1029
1027
1025
1024
1023
1025
1027
1030
1030
1030
1029
1027
1026
1026
1026
1027
1028
1030
1031
1030
1029
1027
1024
1023
1024
1026
1028
1030
1031
1029
1026
1024
1024
1024
1025
1026
1027
1028
1027
1026
1024
1022
1021
1020
1021
1022
1024
1026
1027
1027
1025
1022
1020
1019
1020
1021
1023
1025
1025
1025
1022
1020
1019
1019
1020
1021
1022
1023
1024
1023
1021
1020
1017
1016
1017
1019
1022
1023
1024
1024
1020
1017
1015
1015
1016
1017
1020
1022
1022
1020
1018
1016
1014
1014
1013
1016
1018
1019
1021
1020
1019
1017
1016
1015
1015
1016
1018
1018
1018
1017
1016
1014
1013
1013
1014
1017
1019
1020
1018
1016
1015
1013
1012
1011
1013
1015
1016
1017
1017
1016
1015
1014
1011
1011
1012
1014
1016
1016
1016
1015
1013
1011
1010
1009
1009
1012
1015
1017
1016
1014
1013
1010
1008
1009
1009
1011
1015
1017
1017
1015
1013
1009
1006
1007
1009
1013
1015
1017
1017
1015
1015
1014
1015
1016
1019
1024
1028
1029
1026
1022
1019
1017
1019
1023
1028
1032
1035
1034
1035
1033
1029
1026
1023
1025
1026
1028
1029
1029
1026
1022
1018
1016
1013
1012
1012
1015
1016
1017
1015
1013
1009
1006
1005
1005
1006
1008
1010
1011
1010
1008
1005
1002
1002
1003
1004
1007
1008
1008
1008
1005
1003
1002
1002
1003
1004
1006
1008
1010
1008
1006
1004
1002
1001
1002
1005
1008
1010
1012
1013
1011
1007
1005
1004
1004
1012
1031
1058
1090
1121
1155
1187
1215
1239
1246
1219
1177
1129
1085
1061
1054
1046
1034
1020
1000
982
969
959
951
944
940
940
942
946
952
957
965
973
981
987
992
996
1001
1005
1008
1011
1014
1016
1016
1014
1014
1014
1014
1015
1016
1017
1019
1021
1022
1021
1019
1018
1017
1017
1018
1020
1022
1023
1024
1024
1023
1021
1020
1020
1023
1026
1028
1029
1029
1028
1026
1023
1022
1023
1025
1029
1031
1032
1033
1032
1031
1029
1029
1030
1031
1034
1037
1040
1041
1040
1039
1039
1039
1040
1042
1045
1049
1051
1052
1052
1051
1050
1052
1054
1057
1061
1065
1068
1069
1069
1069
1070
1071
1074
1078
1083
1087
1090
1091
1091
1092
1093
1093
1096
1099
1103
1106
1109
1110
1110
1109
1107
1107
1108
1110
1112
1112
1112
1110
1107
1103
1098
1094
1091
1090
1089
1086
1083
1078
1072
1066
1061
1057
1055
1053
1052
1050
1048
1045
1041
1036
1032
1030
1029
1030
1030
1030
1028
1026
1023
1020
1017
1016
1016
1018
1020
1021
1020
1019
1017
1015
1013
1013
1014
1016
1018
1019
1018
1018
1016
1014
1012
1013
1013
1015
1017
1019
1019
1017
1016
1014
1013
1013
1014
1017
1019
1020
1020
1019
1017
1015
1014
1014
1015
1017
1018
1020
1020
1019
1017
1016
1015
1015
1015
1017
1019
1021
1020
1020
1017
1015
1015
1016
1017
1018
1020
1021
1021
1020
1017
1015
1014
1013
1015
1017
1019
1020
1019
1017
1015
1014
1013
1013
1014
1016
1018
1019
1018
1017
1014
1012
1012
1013
1014
1016
1018
1019
1018
1016
1014
1012
1011
1011
1013
1016
1017
1018
1017
1015
1013
1011
1010
1011
1013
1015
1016
1017
1017
1015
1013
1011
1011
1011
1012
1014
1017
1017
1016
1014
1012
1010
1010
1011
1012
1014
1016
1017
1015
1014
1012
1010
1009
1009
1012
1014
1015
1016
1015
1013
1011
1009
1008
1010
1011
1014
1016
1017
1015
1013
1012
1010
1010
1011
1013
1014
1017
1017
1016
1013
1011
1009
1010
1011
1012
1014
1015
1015
1014
1012
1010
1009
1010
1010
1013
1015
1016
1015
1014
1011
1009
1008
1008
1010
1012
1014
1015
1015
1014
1013
1011
1009
1009
1011
1014
1016
1017
1016
1014
1012
1013
1013
1014
1017
1019
1022
1025
1027
1028
1026
1024
1022
1020
1021
1024
1027
1031
1034
1034
1032
1031
1031
1030
1030
1030
1030
1031
1032
1031
1028
1025
1022
1020
1020
1020
1020
1021
1020
1017
1014
1011
1010
1009
1009
1009
1012
1013
1012
1010
1008
1005
1005
1005
1007
1009
1011
1011
1010
1008
1006
1004
1003
1003
1005
1008
1010
1011
1010
1008
1006
1004
1004
1005
1007
1009
1011
1011
1010
1008
1008
1008
1010
1011
1012
1013
1014
1016
1029
1050
1077
1108
1141
1178
1216
1246
1266
1248
1205
1154
1100
1060
1048
1044
1038
1028
1008
985
967
952
942
935
936
940
945
951
956
960
966
973
980
987
993
998
1004
1011
1014
1016
1017
1017
1017
1016
1017
1018
1020
1022
1025
1025
1024
1021
1019
1018
1019
1020
1024
1026
1027
1028
1027
1025
1023
1022
1022
1024
1026
1028
1030
1031
1031
1029
1027
1026
1027
1029
1032
1035
1036
1036
1035
1033
1032
1030
1030
1032
1035
1038
1040
1041
1041
1040
1038
1037
1037
1040
1043
1046
1050
1051
1049
1049
1048
1048
1050
1053
1057
1061
1063
1064
1065
1064
1064
1066
1068
1072
1077
1081
1083
1084
1086
1087
1087
1088
1091
1094
1098
1102
1105
1107
1108
1108
1105
1105
1107
1110
1113
1115
1116
1115
1112
1108
1105
1103
1100
1099
1097
1095
1094
1090
1083
1076
1070
1065
1061
1059
1058
1057
1054
1049
1043
1039
1034
1030
1027
1026
1026
1026
1026
1023
1020
1016
1013
1011
1011
1013
1013
1013
1012
1011
1007
1005
1004
1003
1004
1006
1007
1009
1008
1007
1005
1003
1001
1000
1001
1003
1004
1006
1007
1006
1003
1001
999
999
1001
1004
1006
1006
1006
1005
1003
1002
1001
1000
1001
1004
1006
1007
1007
1006
1004
1002
1001
1001
1002
1004
1006
1008
1008
1007
1005
1003
1001
1001
1002
1004
1006
1008
1007
1005
1005
1003
1001
1001
1002
1004
1006
1007
1007
1005
1003
1001
1000
1000
1001
1002
1004
1006
1005
1004
1002
999
998
998
1000
1003
1005
1005
1004
1003
1001
999
998
998
1000
1002
1004
1006
1005
1004
1001
999
998
999
1000
1002
1004
1004
1003
1002
1001
999
998
999
1000
1003
1005
1005
1003
1002
1000
999
998
998
1000
1003
1005
1005
1004
1002
1000
998
997
998
1000
1003
1005
1005
1005
1004
1002
1001
999
999
1001
1003
1005
1006
1005
1003
1000
997
997
997
1000
1002
1004
1005
1004
1002
1000
999
998
999
1001
1003
1004
1005
1004
1002
1000
999
998
1000
1002
1004
1006
1006
1004
1002
1000
999
999
1000
1003
1006
1009
1010
1010
1009
1008
1009
1012
1015
1018
1019
1018
1016
1015
1015
1015
1017
1020
1023
1024
1027
1030
1028
1025
1021
1018
1017
1018
1019
1020
1020
1019
1018
1015
1012
1008
1006
1006
1007
1007
1009
1009
1007
1005
1003
1000
998
999
1000
1002
1003
1004
1004
1003
1001
999
997
997
999
1001
1004
1005
1004
1003
1001
1000
998
998
999
1002
1004
1005
1005
1004
1002
1000
999
1000
1002
1005
1008
1011
1010
1007
1005
1001
1004
1020
1047
1081
1117
1153
1189
1223
1248
1259
1231
1183
1130
1081
1053
1045
1039
1029
1013
989
967
952
943
938
936
938
941
943
946
947
952
961
972
984
992
1000
1005
1007
1008
1009
1011
1013
1016
1019
1020
1021
1022
1020
1019
1017
1017
1018
1021
1023
1026
1027
1026
1023
1022
1022
1022
1023
1025
1028
1030
1030
1030
1028
1026
1025
1025
1027
1029
1031
1033
1034
1033
1032
1030
1029
1030
1031
1034
1036
1037
1038
1038
1037
1036
1035
1036
1038
1040
1043
1045
1046
1046
1045
1044
1044
1046
1048
1051
1055
1058
1059
1060
1059
1058
1059
1061
1064
1069
1073
1076
1078
1079
1079
1079
1080
1083
1087
1091
1095
1099
1101
1102
1101
1101
1101
1103
1106
1110
1113
1116
1116
1116
1114
1112
1111
1110
1110
1112
1112
1110
1107
1103
1097
1091
1086
1083
1080
1078
1075
1072
1068
1063
1057
1052
1048
1045
1043
1043
1041
1040
1037
1033
1030
1026
1023
1022
1021
1022
1023
1023
1021
1018
1015
1013
1011
1011
1012
1014
1016
1016
1015
1013
1012
1010
1009
1009
1009
1011
1013
1013
1012
1011
1009
1007
1006
1007
1009
1012
1013
1014
1014
1012
1010
1008
1007
1008
1009
1012
1014
1014
1014
1012
1010
1008
1008
1009
1011
1014
1016
1017
1015
1012
1010
1008
1008
1008
1011
1014
1015
1016
1015
1013
1010
1009
1007
1008
1010
1012
1014
1014
1013
1011
1010
1008
1008
1007
1009
1012
1013
1013
1012
1009
1007
1006
1006
1006
1008
1010
1011
1010
1010
1009
1006
1005
1004
1004
1006
1008
1008
1009
1009
1008
1005
1003
1002
1003
1005
1007
1009
1009
1009
1007
1004
1003
1003
1003
1005
1005
1007
1007
1005
1003
1001
999
1000
1001
1003
1006
1008
1008
1005
1003
1001
1000
1000
1001
1003
1005
1007
1007
1004
1001
998
997
998
998
1001
1003
1005
1005
1004
1001
999
998
999
1001
1004
1004
1005
1004
1002
1000
998
996
997
999
1001
1003
1003
1003
1000
998
996
994
995
998
1001
1001
1003
1003
1001
999
997
996
997
997
998
1000
1002
1002
999
996
995
994
994
996
998
1000
1000
1000
998
996
993
994
995
996
998
999
1000
1001
1001
999
998
999
1001
1005
1010
1014
1014
1013
1009
1005
1002
1004
1007
1012
1017
1020
1020
1020
1018
1015
1011
1009
1008
1011
1014
1015
1014
1012
1008
1005
1003
1000
999
1000
1002
1003
1001
1000
997
993
990
990
992
994
996
996
997
996
993
990
988
988
990
992
995
996
996
994
992
989
988
988
990
993
994
995
995
994
993
991
991
991
992
994
997
999
998
998
998
996
994
995
995
997
1007
1027
1053
1084
1116
1149
1183
1213
1237
1240
1205
1158
1107
1063
1042
1036
1030
1021
1008
988
971
957
947
939
934
931
932
935
942
948
953
961
968
976
982
985
990
995
1000
1006
1009
1011
1011
1011
1010
1008
1009
1010
1012
1015
1017
1018
1019
1018
1016
1014
1014
1015
1017
1020
1022
1023
1023
1021
1019
1017
1018
1020
1022
1024
1027
1027
1027
1026
1024
1023
1023
1024
1027
1029
1032
1032
1032
1031
1029
1029
1029
1030
1033
1036
1039
1040
1040
1038
1037
1037
1037
1039
1042
1045
1048
1049
1050
1050
1049
1049
1051
1054
1057
1060
1063
1065
1066
1067
1067
1067
1070
1073
1077
1081
1085
1087
1089
1089
1089
1090
1093
1096
1100
1104
1106
1108
1108
1108
1107
1106
1107
1109
1111
1113
1114
1113
1110
1106
1102
1098
1095
1093
1093
1091
1088
1084
1079
1074
1068
1063
1059
1057
1056
1054
1052
1047
1043
1039
1035
1031
1030
1029
1029
1029
1028
1026
1024
1020
1017
1016
1015
1015
1017
1018
1019
1018
1015
1013
1010
1009
1009
1010
1012
1014
1015
1014
1012
1010
1009
1008
1008
1009
1011
1013
1015
1014
1013
1010
1008
1008
1009
1010
1012
1014
1015
1015
1013
1012
1010
1009
1009
1011
1014
1016
1017
1016
1014
1011
1009
1009
1009
1012
1014
1016
1016
1015
1014
1012
1010
1009
1010
1012
1014
1016
1016
1015
1014
1011
1009
1009
1010
1012
1014
1015
1015
1013
1011
1009
1008
1007
1007
1009
1012
1013
1013
1012
1010
1008
1006
1006
1008
1009
1011
1012
1012
1012
1009
1008
1006
1006
1006
1007
1009
1011
1012
1012
1010
1008
1006
1005
1006
1008
1010
1011
1010
1009
1007
1005
1004
1003
1004
1005
1007
1009
1010
1009
1007
1005
1003
1003
1005
1007
1009
1009
1009
1007
1006
1004
1003
1001
1003
1006
1007
1009
1008
1006
1004
1002
1001
1002
1003
1005
1006
1007
1007
1005
1004
1001
1000
1000
1001
1003
1006
1007
1006
1005
1004
1001
999
999
1000
1003
1005
1006
1006
1005
1002
1001
1000
1000
1002
1004
1005
1006
1004
1002
1000
998
997
997
999
1001
1003
1003
1002
1002
1000
998
998
998
999
1001
1003
1003
1002
1001
999
998
998
998
999
1001
1002
1002
1001
1000
997
997
996
997
1000
1003
1005
1006
1006
1004
1004
1006
1007
1010
1012
1013
1012
1011
1009
1011
1011
1013
1015
1017
1018
1021
1023
1022
1020
1015
1011
1010
1010
1011
1012
1011
1010
1009
1007
1004
1001
999
999
999
1000
1001
1001
999
997
994
991
989
989
991
992
994
996
996
994
992
989
988
988
988
990
992
993
994
993
991
988
988
988
990
992
993
993
992
990
989
988
987
987
989
992
996
1000
1000
996
994
992
990
997
1017
1046
1080
1114
1148
1182
1210
1231
1230
1194
1150
1103
1062
1043
1038
1031
1020
1003
979
961
946
937
932
929
927
929
929
931
933
937
947
958
968
975
980
985
987
988
990
993
995
997
1001
1002
1001
1000
998
998
998
998
1000
1004
1006
1007
1006
1004
1002
1000
1000
1001
1005
1008
1010
1010
1009
1007
1004
1003
1002
1003
1006
1009
1011
1012
1012
1010
1007
1007
1008
1010
1012
1015
1016
1016
1016
1015
1013
1013
1014
1015
1018
1021
1024
1025
1024
1022
1021
1020
1021
1024
1027
1030
1033
1035
1035
1035
1034
1034
1035
1038
1043
1047
1051
1053
1055
1055
1055
1055
1057
1060
1064
1070
1073
1075
1077
1076
1076
1077
1078
1081
1086
1090
1092
1093
1093
1092
1090
1089
1089
1090
1091
1092
1092
1089
1086
1080
1075
1071
1068
