-1286
-1287
-1288
-1289
-1289
-1289
-1290
-1291
-1291
-1292
-1294
-1295
-1295
-1295
-1295
-1296
-1296
-1296
-1297
-1297
-1298
-1299
-1299
-1299
-1300
-1300
-1300
-1300
-1301
-1302
-1303
-1303
-1304
-1304
-1304
-1304
-1304
-1305
-1305
-1306
-1307
-1307
-1308
-1309
-1308
-1308
-1308
-1308
-1309
-1310
-1310
-1311
-1311
-1311
-1311
-1311
-1311
-1311
-1311
-1312
-1313
-1313
-1313
-1313
-1312
-1312
-1312
-1313
-1313
-1314
-1314
-1315
-1315
-1315
-1315
-1314
-1315
-1315
-1315
-1316
-1316
-1316
-1316
-1316
-1316
-1316
-1316
-1316
-1316
-1316
-1317
-1317
-1317
-1317
-1317
-1317
-1316
-1317
-1317
-1318
-1318
-1318
-1318
-1318
-1318
-1318
-1317
-1318
-1318
-1319
-1319
-1319
-1320
-1319
-1319
-1319
-1319
-1319
-1319
-1319
-1320
-1320
-1320
-1320
-1320
-1319
-1319
-1320
-1320
-1320
-1321
-1320
-1320
-1320
-1320
-1320
-1320
-1320
-1320
-1321
-1321
-1321
-1320
-1320
-1319
-1319
-1318
-1317
-1317
-1316
-1316
-1316
-1315
-1313
-1310
-1309
-1309
-1308
-1309
-1310
-1309
-1309
-1309
-1307
-1303
-1300
-1296
-1295
-1295
-1296
-1299
-1302
-1305
-1306
-1308
-1309
-1310
-1311
-1313
-1314
-1315
-1316
-1318
-1319
-1321
-1322
-1323
-1324
-1325
-1326
-1327
-1328
-1329
-1329
-1329
-1328
-1329
-1329
-1330
-1330
-1331
-1331
-1331
-1331
-1330
-1330
-1330
-1330
-1331
-1332
-1332
-1332
-1332
-1333
-1335
-1338
-1343
-1350
-1358
-1366
-1372
-1377
-1378
-1370
-1356
-1336
-1311
-1272
-1220
-1160
-1096
-1032
-972
-914
-858
-809
-768
-733
-704
-685
-688
-718
-763
-819
-894
-980
-1070
-1159
-1242
-1311
-1337
-1344
-1348
-1346
-1341
-1335
-1329
-1324
-1316
-1310
-1306
-1302
-1300
-1299
-1299
-1299
-1300
-1301
-1302
-1302
-1302
-1302
-1302
-1302
-1301
-1301
-1300
-1300
-1300
-1299
-1299
-1298
-1298
-1297
-1296
-1295
-1294
-1294
-1292
-1292
-1291
-1291
-1290
-1289
-1287
-1286
-1285
-1284
-1283
-1283
-1281
-1280
-1279
-1278
-1276
-1275
-1273
-1273
-1272
-1271
-1269
-1268
-1266
-1264
-1262
-1260
-1259
-1258
-1256
-1254
-1253
-1251
-1249
-1247
-1244
-1242
-1240
-1238
-1236
-1233
-1230
-1228
-1225
-1222
-1219
-1216
-1213
-1210
-1207
-1205
-1201
-1198
-1195
-1192
-1188
-1185
-1183
-1180
-1178
-1176
-1174
-1172
-1169
-1167
-1165
-1163
-1162
-1160
-1159
-1158
-1158
-1157
-1157
-1156
-1156
-1157
-1159
-1160
-1163
-1167
-1170
-1174
-1178
-1183
-1187
-1192
-1198
-1205
-1210
-1217
-1223
-1229
-1234
-1239
-1244
-1250
-1254
-1260
-1264
-1269
-1273
-1277
-1280
-1283
-1285
-1288
-1290
-1293
-1295
-1297
-1299
-1301
-1301
-1302
-1303
-1303
-1304
-1306
-1306
-1307
-1308
-1309
-1308
-1308
-1308
-1308
-1309
-1309
-1310
-1310
-1310
-1310
-1310
-1309
-1309
-1308
-1308
-1309
-1309
-1309
-1309
-1308
-1308
-1307
-1307
-1306
-1306
-1306
-1307
-1307
-1307
-1307
-1306
-1306
-1305
-1304
-1304
-1305
-1305
-1305
-1305
-1305
-1305
-1304
-1304
-1304
-1304
-1305
-1305
-1305
-1306
-1306
-1306
-1306
-1305
-1306
-1307
-1307
-1307
-1308
-1308
-1309
-1309
-1308
-1308
-1309
-1309
-1310
-1311
-1311
-1312
-1312
-1312
-1311
-1311
-1312
-1313
-1313
-1314
-1314
-1315
-1315
-1315
-1315
-1315
-1315
-1315
-1316
-1316
-1317
-1317
-1318
-1317
-1317
-1317
-1317
-1318
-1318
-1319
-1319
-1320
-1320
-1320
-1319
-1318
-1319
-1320
-1320
-1320
-1320
-1321
-1321
-1321
-1320
-1320
-1320
-1320
-1321
-1322
-1322
-1323
-1322
-1322
-1322
-1321
-1321
-1322
-1322
-1323
-1323
-1323
-1323
-1322
-1322
-1322
-1322
-1322
-1323
-1324
-1324
-1324
-1324
-1323
-1322
-1322
-1323
-1323
-1323
-1323
-1324
-1324
-1324
-1323
-1323
-1323
-1323
-1324
-1324
-1324
-1325
-1325
-1324
-1324
-1324
-1324
-1323
-1324
-1324
-1325
-1325
-1325
-1325
-1324
-1324
-1323
-1324
-1324
-1325
-1325
-1325
-1325
-1325
-1325
-1324
-1324
-1324
-1325
-1325
-1325
-1325
-1325
-1325
-1325
-1324
-1324
-1325
-1325
-1325
-1325
-1325
-1324
-1324
-1323
-1322
-1321
-1320
-1320
-1320
-1320
-1319
-1317
-1315
-1313
-1312
-1312
-1312
-1313
-1313
-1313
-1313
-1312
-1308
-1305
-1301
-1299
-1299
-1299
-1302
-1304
-1307
-1309
-1310
-1312
-1312
-1313
-1314
-1316
-1317
-1318
-1319
-1321
-1323
-1324
-1325
-1327
-1328
-1329
-1329
-1330
-1331
-1332
-1331
-1331
-1331
-1331
-1331
-1332
-1332
-1332
-1332
-1332
-1332
-1332
-1331
-1331
-1331
-1332
-1332
-1333
-1333
-1333
-1334
-1337
-1340
-1346
-1354
-1363
-1370
-1377
-1381
-1379
-1369
-1353
-1331
-1302
-1259
-1204
-1141
-1077
-1013
-954
-895
-838
-790
-749
-714
-687
-675
-691
-732
-782
-846
-928
-1018
-1106
-1192
-1271
-1326
-1343
-1349
-1349
-1344
-1338
-1331
-1325
-1318
-1312
-1306
-1302
-1300
-1299
-1298
-1298
-1299
-1300
-1300
-1301
-1301
-1301
-1301
-1301
-1300
-1299
-1298
-1298
-1298
-1298
-1298
-1298
-1297
-1296
-1294
-1293
-1293
-1292
-1292
-1292
-1291
-1289
-1289
-1287
-1286
-1284
-1283
-1282
-1282
-1281
-1280
-1279
-1278
-1277
-1276
-1273
-1271
-1271
-1269
-1268
-1267
-1266
-1264
-1262
-1260
-1259
-1257
-1255
-1254
-1253
-1251
-1249
-1247
-1244
-1242
-1240
-1238
-1236
-1234
-1232
-1229
-1227
-1224
-1221
-1217
-1214
-1211
-1208
-1205
-1202
-1199
-1196
-1193
-1190
-1187
-1184
-1180
-1178
-1175
-1173
-1171
-1169
-1167
-1164
-1161
-1159
-1158
-1157
-1155
-1154
-1153
-1152
-1151
-1150
-1150
-1150
-1151
-1153
-1155
-1158
-1161
-1164
-1169
-1173
-1177
-1182
-1188
-1193
-1199
-1205
-1211
-1216
-1222
-1229
-1234
-1239
-1244
-1249
-1255
-1260
-1264
-1267
-1271
-1274
-1277
-1279
-1282
-1285
-1288
-1290
-1291
-1293
-1294
-1295
-1296
-1296
-1297
-1298
-1299
-1300
-1300
-1301
-1301
-1301
-1301
-1302
-1302
-1303
-1303
-1304
-1304
-1304
-1304
-1303
-1302
-1302
-1303
-1302
-1302
-1303
-1303
-1303
-1303
-1302
-1302
-1301
-1300
-1300
-1300
-1300
-1300
-1300
-1300
-1300
-1299
-1298
-1297
-1298
-1298
-1299
-1298
-1297
-1298
-1298
-1297
-1297
-1297
-1298
-1297
-1298
-1299
-1299
-1299
-1298
-1298
-1298
-1298
-1299
-1300
-1300
-1300
-1300
-1300
-1301
-1301
-1302
-1301
-1302
-1303
-1303
-1303
-1303
-1304
-1304
-1303
-1304
-1305
-1306
-1306
-1307
-1307
-1308
-1308
-1308
-1307
-1307
-1307
-1307
-1308
-1308
-1309
-1310
-1310
-1310
-1310
-1309
-1309
-1310
-1311
-1311
-1312
-1312
-1312
-1312
-1311
-1311
-1312
-1311
-1312
-1312
-1312
-1312
-1313
-1313
-1312
-1312
-1313
-1313
-1313
-1313
-1314
-1314
-1314
-1314
-1313
-1313
-1314
-1314
-1314
-1314
-1314
-1314
-1314
-1314
-1314
-1314
-1314
-1315
-1316
-1316
-1316
-1315
-1315
-1315
-1314
-1314
-1314
-1315
-1316
-1315
-1315
-1315
-1315
-1315
-1315
-1315
-1316
-1316
-1316
-1315
-1316
-1316
-1316
-1315
-1315
-1315
-1315
-1316
-1317
-1317
-1317
-1317
-1316
-1316
-1316
-1315
-1316
-1316
-1317
-1317
-1317
-1317
-1317
-1316
-1316
-1316
-1316
-1317
-1318
-1318
-1318
-1318
-1317
-1316
-1315
-1315
-1315
-1315
-1314
-1314
-1313
-1312
-1312
-1311
-1309
-1306
-1306
-1306
-1306
-1307
-1307
-1306
-1306
-1305
-1304
-1300
-1297
-1294
-1291
-1291
-1292
-1295
-1297
-1299
-1300
-1303
-1305
-1306
-1307
-1308
-1310
-1310
-1311
-1312
-1313
-1316
-1317
-1319
-1320
-1321
-1321
-1322
-1322
-1322
-1322
-1323
-1323
-1324
-1324
-1325
-1325
-1325
-1324
-1324
-1324
-1324
-1325
-1325
-1325
-1325
-1325
-1326
-1326
-1325
-1325
-1326
-1330
-1333
-1339
-1346
-1353
-1359
-1363
-1365
-1360
-1351
-1334
-1311
-1280
-1235
-1180
-1120
-1059
-1001
-947
-894
-848
-810
-774
-744
-723
-713
-730
-767
-816
-879
-960
-1042
-1132
-1215
-1288
-1326
-1338
-1344
-1351
-1352
-1347
-1340
-1334
-1328
-1319
-1311
-1306
-1302
-1298
-1297
-1296
-1297
-1298
-1298
-1299
-1298
-1297
-1297
-1297
-1297
-1297
-1297
-1296
-1296
-1295
-1295
-1293
-1292
-1291
-1291
-1291
-1290
-1290
-1289
-1288
-1288
-1286
-1286
-1285
-1283
-1283
-1283
-1282
-1281
-1280
-1279
-1277
-1275
-1275
-1274
-1273
-1272
-1270
-1269
-1268
-1266
-1264
-1262
-1261
-1260
-1259
-1258
-1256
-1255
-1253
-1250
-1248
-1246
-1244
-1242
-1240
-1238
-1236
-1234
-1232
-1229
-1225
-1223
-1220
-1217
-1215
-1212
-1209
-1206
-1203
-1200
-1196
-1193
-1190
-1187
-1185
-1183
-1180
-1177
-1175
-1173
-1170
-1168
-1165
-1164
-1163
-1161
-1161
-1159
-1158
-1157
-1156
-1155
-1155
-1156
-1157
-1158
-1160
-1162
-1165
-1168
-1172
-1175
-1180
-1185
-1191
-1197
-1202
-1208
-1214
-1219
-1224
-1230
-1236
-1241
-1246
-1252
-1256
-1261
-1264
-1268
-1272
-1275
-1278
-1281
-1284
-1286
-1289
-1290
-1292
-1293
-1294
-1296
-1296
-1298
-1299
-1300
-1301
-1302
-1303
-1303
-1303
-1303
-1303
-1304
-1304
-1305
-1305
-1305
-1305
-1305
-1305
-1304
-1305
-1305
-1305
-1305
-1304
-1305
-1304
-1304
-1303
-1303
-1303
-1303
-1303
-1303
-1302
-1302
-1302
-1301
-1300
-1300
-1300
-1300
-1300
-1300
-1300
-1300
-1300
-1299
-1299
-1299
-1299
-1299
-1300
-1301
-1301
-1300
-1300
-1300
-1300
-1300
-1301
-1301
-1301
-1302
-1302
-1303
-1303
-1303
-1302
-1303
-1303
-1304
-1304
-1305
-1306
-1306
-1307
-1307
-1306
-1307
-1308
-1308
-1309
-1310
-1310
-1310
-1310
-1310
-1310
-1310
-1311
-1312
-1312
-1313
-1313
-1313
-1313
-1312
-1312
-1313
-1313
-1314
-1315
-1315
-1315
-1316
-1315
-1315
-1315
-1315
-1316
-1316
-1317
-1317
-1318
-1318
-1317
-1317
-1316
-1317
-1317
-1318
-1318
-1318
-1318
-1319
-1318
-1318
-1318
-1318
-1318
-1319
-1319
-1319
-1320
-1319
-1319
-1319
-1319
-1319
-1319
-1320
-1320
-1320
-1320
-1320
-1320
-1319
-1319
-1319
-1319
-1320
-1321
-1321
-1321
-1321
-1320
-1320
-1320
-1320
-1320
-1320
-1321
-1321
-1321
-1321
-1321
-1320
-1320
-1320
-1321
-1321
-1322
-1322
-1321
-1321
-1321
-1321
-1321
-1321
-1321
-1322
-1322
-1322
-1323
-1322
-1322
-1321
-1321
-1321
-1322
-1322
-1322
-1323
-1323
-1322
-1322
-1322
-1322
-1322
-1322
-1322
-1323
-1323
-1323
-1322
-1322
-1322
-1322
-1322
-1322
-1323
-1323
-1322
-1322
-1321
-1320
-1320
-1319
-1318
-1318
-1317
-1318
-1318
-1316
-1314
-1311
-1310
-1310
-1310
-1311
-1310
-1310
-1310
-1309
-1307
-1303
-1299
-1297
-1297
-1297
-1300
-1302
-1305
-1307
-1308
-1309
-1310
-1312
-1313
-1315
-1316
-1316
-1317
-1319
-1320
-1322
-1324
-1325
-1326
-1327
-1327
-1329
-1329
-1329
-1329
-1329
-1328
-1329
-1329
-1330
-1331
-1331
-1331
-1330
-1330
-1330
-1329
-1330
-1330
-1330
-1331
-1332
-1332
-1332
-1333
-1335
-1339
-1345
-1353
-1361
-1368
-1374
-1378
-1377
-1369
-1353
-1332
-1306
-1265
-1210
-1147
-1083
-1019
-958
-898
-839
-788
-747
-712
-684
-671
-685
-725
-774
-835
-914
-1004
-1091
-1178
-1257
-1318
-1341
-1346
-1346
-1341
-1336
-1329
-1324
-1317
-1310
-1306
-1302
-1298
-1297
-1297
-1297
-1297
-1298
-1299
-1299
-1300
-1301
-1300
-1299
-1298
-1298
-1297
-1297
-1297
-1297
-1297
-1296
-1295
-1295
-1294
-1293
-1292
-1291
-1291
-1291
-1290
-1289
-1288
-1287
-1286
-1285
-1284
-1283
-1282
-1282
-1281
-1280
-1279
-1278
-1277
-1275
-1273
-1272
-1271
-1270
-1269
-1268
-1267
-1265
-1263
-1261
-1260
-1258
-1257
-1255
-1253
-1252
-1250
-1247
-1245
-1243
-1240
-1237
-1236
-1233
-1231
-1229
-1226
-1223
-1219
-1215
-1212
-1209
-1206
-1203
-1200
-1197
-1193
-1189
-1186
-1182
-1180
-1177
-1174
-1172
-1170
-1167
-1165
-1163
-1160
-1157
-1155
-1153
-1152
-1152
-1151
-1150
-1149
-1148
-1148
-1148
-1149
-1150
-1152
-1156
-1159
-1163
-1167
-1171
-1176
-1180
-1186
-1192
-1199
-1205
-1212
-1218
-1224
-1229
-1234
-1240
-1245
-1250
-1256
-1261
-1265
-1270
-1273
-1277
-1279
-1282
-1284
-1288
-1290
-1292
-1294
-1296
-1297
-1298
-1299
-1300
-1300
-1301
-1302
-1303
-1304
-1305
-1305
-1305
-1306
-1306
-1305
-1306
-1307
-1307
-1307
-1307
-1307
-1307
-1306
-1305
-1306
-1306
-1306
-1306
-1306
-1306
-1306
-1305
-1304
-1303
-1303
-1303
-1303
-1304
-1303
-1303
-1303
-1302
-1301
-1301
-1300
-1301
-1301
-1301
-1301
-1301
-1301
-1300
-1299
-1299
-1299
-1299
-1300
-1300
-1300
-1301
-1300
-1300
-1300
-1300
-1300
-1300
-1301
-1301
-1302
-1302
-1302
-1301
-1301
-1301
-1302
-1302
-1303
-1304
-1304
-1304
-1304
-1304
-1304
-1305
-1305
-1305
-1306
-1307
-1307
-1307
-1307
-1307
-1307
-1307
-1307
-1308
-1309
-1310
-1310
-1310
-1310
-1309
-1308
-1309
-1309
-1309
-1309
-1310
-1311
-1311
-1311
-1310
-1310
-1310
-1311
-1311
-1312
-1312
-1312
-1312
-1312
-1312
-1312
-1311
-1311
-1311
-1312
-1312
-1313
-1313
-1313
-1312
-1312
-1312
-1313
-1313
-1313
-1314
-1314
-1314
-1313
-1313
-1313
-1313
-1313
-1313
-1314
-1314
-1314
-1313
-1313
-1313
-1312
-1312
-1312
-1313
-1313
-1314
-1314
-1314
-1314
-1313
-1312
-1312
-1313
-1314
-1314
-1314
-1314
-1313
-1313
-1313
-1312
-1313
-1313
-1313
-1313
-1314
-1314
-1314
-1314
-1313
-1313
-1313
-1313
-1313
-1313
-1314
-1314
-1314
-1313
-1313
-1313
-1313
-1313
-1313
-1313
-1313
-1314
-1314
-1313
-1312
-1312
-1312
-1312
-1313
-1313
-1313
-1313
-1313
-1313
-1312
-1313
-1313
-1313
-1313
-1313
-1314
-1314
-1313
-1313
-1312
-1311
-1312
-1313
-1314
-1314
-1314
-1314
-1314
-1314
-1313
-1312
-1312
-1312
-1312
-1312
-1311
-1311
-1309
-1308
-1307
-1307
-1307
-1306
-1304
-1303
-1303
-1302
-1302
-1302
-1300
-1299
-1298
-1298
-1297
-1294
-1291
-1288
-1287
-1287
-1288
-1291
-1293
-1295
-1297
-1299
-1301
-1302
-1302
-1303
-1303
-1304
-1305
-1307
-1310
-1312
-1313
-1315
-1315
-1315
-1315
-1316
-1316
-1317
-1318
-1318
-1318
-1318
-1318
-1318
-1318
-1318
-1318
-1318
-1319
-1319
-1319
-1319
-1318
-1318
-1318
-1318
-1318
-1318
-1320
-1322
-1326
-1330
-1336
-1343
-1349
-1354
-1359
-1359
-1351
-1337
-1316
-1290
-1249
-1197
-1138
-1075
-1015
-960
-906
-854
-810
-771
-736
-708
-690
-698
-735
-783
-839
-915
-997
-1084
-1168
-1245
-1305
-1327
-1335
-1342
-1343
-1338
-1331
-1324
-1317
-1308
-1301
-1296
-1292
-1289
-1288
-1287
-1288
-1288
-1288
-1288
-1288
-1288
-1288
-1288
-1288
-1288
-1287
-1287
-1286
-1285
-1284
-1283
-1283
-1282
-1282
-1281
-1281
-1280
-1278
-1277
-1277
-1276
-1275
-1274
-1274
-1273
-1272
-1271
-1269
-1267
-1266
-1265
-1264
-1264
-1263
-1263
-1261
-1260
-1258
-1256
-1254
-1253
-1252
-1251
-1250
-1248
-1247
-1244
-1242
-1240
-1238
-1236
-1234
-1233
-1232
-1230
-1227
-1225
-1222
-1219
-1217
-1214
-1212
-1209
-1207
-1204
-1201
-1198
-1195
-1191
-1188
-1185
-1182
-1179
-1176
-1174
-1171
-1168
-1165
-1162
-1159
-1157
-1155
-1153
-1151
-1150
-1147
-1145
-1144
-1142
-1141
-1140
-1139
-1139
-1139
-1139
-1140
-1141
-1142
-1143
-1146
-1150
-1153
-1158
-1163
-1168
-1173
-1179
-1184
-1189
-1194
-1200
-1206
-1212
-1218
-1223
-1229
-1233
-1238
-1242
-1245
-1250
-1254
-1258
-1261
-1265
-1268
-1270
-1272
-1274
-1276
-1278
-1279
-1281
-1282
-1283
-1284
-1285
-1285
-1285
-1286
-1287
-1287
-1288
-1289
-1289
-1289
-1290
-1289
-1289
-1289
-1289
-1290
-1290
-1290
-1290
-1290
-1290
-1289
-1289
-1288
-1288
-1289
-1289
-1289
-1289
-1289
-1288
-1287
-1286
-1286
-1286
-1286
-1286
-1286
-1285
-1285
-1285
-1284
-1283
-1283
-1283
-1283
-1284
-1284
-1284
-1284
-1284
-1283
-1284
-1283
-1283
-1284
-1284
-1284
-1285
-1285
-1285
-1284
-1284
-1285
-1285
-1286
-1287
-1287
-1287
-1288
-1288
-1288
-1288
-1288
-1289
-1289
-1290
-1291
-1291
-1291
-1291
-1291
-1291
-1291
-1292
-1293
-1294
-1294
-1294
-1294
-1294
-1294
-1294
-1295
-1295
-1296
-1296
-1297
-1297
-1297
-1297
-1297
-1297
-1297
-1297
-1298
-1299
-1299
-1299
-1299
-1299
-1298
-1299
-1299
-1299
-1300
-1300
-1301
-1301
-1301
-1301
-1301
-1300
-1301
-1301
-1302
-1302
-1302
-1301
-1301
-1301
-1301
-1301
-1302
-1302
-1302
-1303
-1303
-1303
-1303
-1302
-1302
-1302
-1302
-1303
-1303
-1303
-1303
-1304
-1303
-1303
-1303
-1302
-1302
-1303
-1304
-1304
-1304
-1304
-1304
-1304
-1303
-1303
-1304
-1304
-1304
-1305
-1305
-1305
-1305
-1304
-1304
-1304
-1304
-1305
-1305
-1305
-1305
-1305
-1305
-1305
-1305
-1304
-1305
-1305
-1306
-1306
-1306
-1306
-1306
-1306
-1306
-1306
-1306
-1306
-1306
-1306
-1307
-1307
-1306
-1306
-1306
-1306
-1306
-1306
-1306
-1307
-1307
-1307
-1306
-1305
-1304
-1304
-1304
-1304
-1303
-1302
-1302
-1302
-1301
-1299
-1296
-1295
-1294
-1295
-1295
-1296
-1295
-1295
-1294
-1293
-1291
-1287
-1284
-1282
-1282
-1281
-1283
-1286
-1289
-1290
-1291
-1293
-1295
-1297
-1298
-1299
-1300
-1300
-1301
-1303
-1304
-1306
-1308
-1310
-1311
-1312
-1312
-1313
-1313
-1313
-1313
-1313
-1313
-1314
-1314
-1315
-1316
-1315
-1315
-1315
-1314
-1314
-1315
-1315
-1316
-1316
-1316
-1316
-1316
-1315
-1315
-1318
-1322
-1327
-1334
-1343
-1350
-1356
-1360
-1361
-1354
-1342
-1322
-1298
-1263
-1213
-1153
-1089
-1025
-964
-906
-849
-798
-755
-718
-689
-668
-670
-698
-742
-794
-866
-954
-1044
-1133
-1215
-1287
-1319
-1328
-1332
-1330
-1326
-1321
-1315
-1309
-1302
-1296
-1290
-1286
-1283
-1282
-1282
-1283
-1285
-1286
-1286
-1286
-1286
-1285
-1285
-1284
-1284
-1284
-1285
-1284
-1284
-1283
-1283
-1281
-1280
-1280
-1279
-1279
-1279
-1278
-1277
-1276
-1274
-1273
-1272
-1271
-1271
-1270
-1269
-1269
-1268
-1267
-1265
-1263
-1262
-1261
-1260
-1259
-1258
-1257
-1256
-1254
-1252
-1251
-1249
-1247
-1246
-1245
-1244
-1242
-1240
-1238
-1237
-1234
-1231
-1229
-1227
-1226
-1224
-1221
-1219
-1216
-1213
-1210
-1207
-1204
-1201
-1199
-1196
-1193
-1190
-1186
-1182
-1179
-1175
-1172
-1169
-1166
-1164
-1161
-1158
-1156
-1153
-1150
-1147
-1145
-1143
-1141
-1140
-1139
-1137
-1136
-1135
-1133
-1133
-1133
-1133
-1134
-1135
-1137
-1140
-1142
-1146
-1149
-1153
-1157
-1163
-1169
-1175
-1181
-1187
-1193
-1198
-1204
-1210
-1216
-1222
-1228
-1233
-1239
-1244
-1248
-1252
-1256
-1259
-1262
-1265
-1269
-1272
-1275
-1277
-1279
-1280
-1281
-1282
-1283
-1285
-1286
-1287
-1288
-1289
-1290
-1289
-1289
-1289
-1290
-1291
-1292
-1293
-1293
-1292
-1292
-1292
-1292
-1292
-1292
-1292
-1292
-1293
-1292
-1292
-1293
-1292
-1290
-1290
-1291
-1290
-1290
-1290
-1291
-1290
-1290
-1289
-1288
-1288
-1288
-1288
-1288
-1288
-1288
-1288
-1287
-1287
-1286
-1286
-1286
-1286
-1287
-1287
-1287
-1287
-1287
-1286
-1286
-1287
-1287
-1288
-1288
-1289
-1289
-1289
-1289
-1289
-1289
-1289
-1289
-1290
-1291
-1291
-1292
-1292
-1292
-1292
-1292
-1292
-1293
-1293
-1294
-1295
-1295
-1295
-1296
-1295
-1295
-1295
-1296
-1296
-1297
-1297
-1298
-1298
-1298
-1298
-1298
-1298
-1299
-1299
-1300
-1300
-1301
-1301
-1301
-1300
-1300
-1300
-1301
-1302
-1302
-1303
-1303
-1303
-1302
-1302
-1302
-1302
-1303
-1303
-1304
-1304
-1304
-1304
-1303
-1303
-1303
-1303
-1303
-1304
-1305
-1305
-1305
-1305
-1304
-1304
-1304
-1304
-1304
-1305
-1306
-1305
-1306
-1306
-1305
-1305
-1305
-1305
-1305
-1305
-1306
-1306
-1306
-1306
-1305
-1305
-1305
-1305
-1305
-1306
-1306
-1306
-1307
-1306
-1306
-1305
-1306
-1306
-1306
-1307
-1307
-1307
-1307
-1307
-1307
-1307
-1306
-1306
-1307
-1307
-1307
-1308
-1307
-1307
-1307
-1307
-1306
-1307
-1307
-1307
-1308
-1308
-1308
-1307
-1307
-1306
-1307
-1307
-1306
-1307
-1308
-1308
-1308
-1308
-1307
-1307
-1307
-1307
-1307
-1308
-1308
-1308
-1308
-1308
-1307
-1307
-1307
-1307
-1307
-1308
-1308
-1308
-1308
-1307
-1307
-1307
-1306
-1305
-1305
-1305
-1305
-1304
-1303
-1302
-1302
-1301
-1300
-1298
-1296
-1296
-1296
-1296
-1296
-1295
-1294
-1294
-1293
-1292
-1289
-1285
-1283
-1282
-1281
-1283
-1285
-1287
-1289
-1291
-1293
-1295
-1297
-1298
-1299
-1299
-1299
-1300
-1301
-1304
-1306
-1307
-1309
-1310
-1310
-1310
-1310
-1311
-1311
-1312
-1313
-1313
-1313
-1314
-1313
-1313
-1313
-1313
-1313
-1313
-1313
-1314
-1314
-1313
-1314
-1314
-1314
-1313
-1314
-1315
-1319
-1323
-1329
-1335
-1343
-1350
-1354
-1358
-1356
-1347
-1331
-1309
-1280
-1236
-1180
-1117
-1053
-990
-931
-873
-818
-771
-731
-697
-670
-660
-676
-717
-767
-831
-913
-1003
-1091
-1176
-1254
-1307
-1323
-1329
-1329
-1325
-1319
-1312
-1307
-1300
-1292
-1287
-1282
-1279
-1277
-1278
-1279
-1280
-1281
-1281
-1281
-1281
-1281
-1280
-1280
-1280
-1280
-1281
-1281
-1279
-1278
-1277
-1276
-1276
-1275
-1274
-1274
-1274
-1274
-1273
-1272
-1270
-1269
-1267
-1266
-1265
-1264
-1264
-1264
-1263
-1261
-1260
-1259
-1257
-1256
-1256
-1255
-1254
-1252
-1251
-1250
-1247
-1245
-1243
-1242
-1240
-1239
-1237
-1235
-1234
-1233
-1231
-1229
-1226
-1225
-1223
-1222
-1220
-1217
-1215
-1212
-1209
-1206
-1202
-1199
-1197
-1195
-1192
-1188
-1186
-1182
-1178
-1174
-1171
-1169
-1166
-1163
-1161
-1158
-1155
-1151
-1147
-1145
-1142
-1140
-1138
-1136
-1134
-1132
-1132
-1129
-1128
-1126
-1125
-1125
-1125
-1125
-1126
-1128
-1129
-1131
-1133
-1136
-1140
-1144
-1149
-1154
-1160
-1166
-1172
-1177
-1183
-1189
-1195
-1201
-1207
-1213
-1219
-1225
-1229
-1233
-1238
-1241
-1245
-1249
-1254
-1257
-1260
-1263
-1265
-1267
-1268
-1270
-1271
-1273
-1274
-1276
-1277
-1278
-1279
-1280
-1280
-1280
-1280
-1281
-1282
-1282
-1282
-1283
-1284
-1283
-1282
-1283
-1283
-1282
-1282
-1283
-1283
-1283
-1283
-1282
-1281
-1281
-1281
-1281
-1281
-1281
-1281
-1281
-1281
-1280
-1280
-1279
-1279
-1279
-1279
-1279
-1279
-1279
-1278
-1278
-1277
-1276
-1277
-1277
-1277
-1277
-1277
-1278
-1278
-1278
-1277
-1277
-1277
-1278
-1278
-1280
-1279
-1279
-1279
-1279
-1279
-1280
-1279
-1280
-1281
-1281
-1281
-1281
-1281
-1281
-1280
-1281
-1282
-1283
-1283
-1284
-1284
-1285
-1284
-1284
-1284
-1284
-1285
-1285
-1286
-1287
-1288
-1288
-1287
-1286
-1286
-1287
-1288
-1289
-1289
-1290
-1290
-1290
-1290
-1289
-1289
-1289
-1290
-1290
-1291
-1292
-1291
-1291
-1291
-1291
-1290
-1290
-1290
-1291
-1292
-1292
-1293
-1293
-1293
-1292
-1292
-1292
-1292
-1293
-1293
-1293
-1293
-1293
-1292
-1292
-1292
-1292
-1292
-1293
-1294
-1293
-1293
-1293
-1293
-1293
-1293
-1293
-1294
-1294
-1294
-1295
-1295
-1295
-1295
-1294
-1294
-1294
-1294
-1294
-1295
-1295
-1295
-1295
-1295
-1294
-1294
-1294
-1295
-1295
-1296
-1296
-1296
-1295
-1295
-1294
-1294
-1294
-1294
-1295
-1295
-1295
-1295
-1296
-1296
-1295
-1295
-1295
-1295
-1296
-1296
-1296
-1296
-1296
-1296
-1295
-1294
-1295
-1295
-1296
-1296
-1296
-1296
-1296
-1295
-1294
-1294
-1294
-1293
-1293
-1293
-1293
-1292
-1291
-1290
-1287
-1285
-1285
-1284
-1285
-1286
-1286
-1285
-1285
-1284
-1282
-1278
-1274
-1272
-1271
-1270
-1272
-1275
-1277
-1279
-1280
-1282
-1284
-1286
-1287
-1288
-1290
-1290
-1290
-1291
-1293
-1295
-1297
-1299
-1300
-1301
-1301
-1302
-1302
-1302
-1303
-1303
-1303
-1303
-1304
-1305
-1305
-1306
-1305
-1304
-1304
-1304
-1304
-1305
-1306
-1306
-1306
-1306
-1306
-1305
-1306
-1308
-1312
-1317
-1323
-1330
-1337
-1343
-1346
-1345
-1336
-1322
-1302
-1276
-1236
-1185
-1127
-1065
-1005
-949
-894
-844
-803
-766
-733
-709
-692
-697
-726
-769
-824
-898
-980
-1068
-1155
-1234
-1293
-1313
-1320
-1327
-1331
-1328
-1322
-1316
-1310
-1303
-1295
-1289
-1284
-1280
-1278
-1276
-1277
-1278
-1278
-1279
-1279
-1279
-1278
-1278
-1278
-1277
-1277
-1277
-1277
-1276
-1276
-1275
-1275
-1273
-1272
-1272
-1271
-1271
-1271
-1270
-1270
-1269
-1267
-1266
-1265
-1264
-1263
-1262
-1262
-1261
-1260
-1260
-1257
-1256
-1255
-1253
-1253
-1252
-1251
-1250
-1249
-1248
-1246
-1244
-1242
-1241
-1240
-1238
-1237
-1235
-1233
-1231
-1229
-1227
-1225
-1223
-1221
-1219
-1217
-1215
-1213
-1210
-1207
-1204
-1201
-1198
-1196
-1193
-1191
-1187
-1184
-1181
-1177
-1174
-1170
-1167
-1165
-1163
-1161
-1158
-1156
-1152
-1150
-1148
-1146
-1144
-1142
-1140
-1140
-1138
-1137
-1135
-1134
-1134
-1133
-1133
-1135
-1136
-1138
-1140
-1143
-1146
-1149
-1153
-1158
-1163
-1168
-1174
-1180
-1186
-1192
-1198
-1203
-1208
-1214
-1220
-1225
-1230
-1236
-1240
-1245
-1249
-1252
-1255
-1258
-1262
-1265
-1268
-1270
-1273
-1274
-1276
-1277
-1278
-1279
-1281
-1282
-1283
-1284
-1285
-1285
-1286
-1285
-1286
-1286
-1286
-1286
-1287
-1288
-1288
-1288
-1287
-1287
-1286
-1287
-1287
-1287
-1287
-1287
-1287
-1287
-1287
-1286
-1285
-1285
-1286
-1285
-1285
-1286
-1286
-1285
-1284
-1284
-1284
-1283
-1283
-1284
-1284
-1284
-1284
-1284
-1283
-1283
-1283
-1282
-1283
-1284
-1284
-1284
-1284
-1284
-1284
-1284
-1284
-1284
-1284
-1285
-1285
-1286
-1287
-1287
-1286
-1286
-1286
-1287
-1287
-1288
-1289
-1289
-1290
-1290
-1290
-1290
-1290
-1291
-1291
-1291
-1292
-1293
-1294
-1294
-1293
-1293
-1294
-1294
-1294
-1295
-1296
-1296
-1297
-1296
-1296
-1296
-1295
-1296
-1297
-1297
-1298
-1298
-1298
-1298
-1298
-1298
-1298
-1298
-1299
-1299
-1300
-1300
-1300
-1301
-1300
-1300
-1300
-1300
-1300
-1301
-1301
-1302
-1302
-1301
-1301
-1300
-1300
-1300
-1301
-1302
-1302
-1302
-1302
-1302
-1302
-1301
-1302
-1302
-1302
-1302
-1303
-1303
-1303
-1303
-1302
-1302
-1302
-1302
-1303
-1303
-1304
-1304
-1304
-1303
-1303
-1303
-1302
-1303
-1304
-1303
-1304
-1304
-1304
-1304
-1303
-1303
-1303
-1303
-1303
-1304
-1304
-1304
-1305
-1304
-1304
-1304
-1304
-1304
-1304
-1305
-1305
-1305
-1305
-1305
-1304
-1304
-1304
-1304
-1305
-1305
-1305
-1305
-1306
-1305
-1305
-1304
-1304
-1305
-1305
-1306
-1306
-1306
-1305
-1304
-1303
-1302
-1302
-1301
-1301
-1300
-1300
-1300
-1299
-1297
-1294
-1292
-1291
-1292
-1294
-1293
-1293
-1293
-1292
-1291
-1288
-1284
-1280
-1280
-1280
-1280
-1283
-1286
-1288
-1289
-1291
-1292
-1294
-1295
-1297
-1298
-1298
-1299
-1300
-1302
-1304
-1305
-1306
-1308
-1310
-1311
-1311
-1312
-1312
-1312
-1311
-1312
-1312
-1312
-1313
-1314
-1314
-1314
-1314
-1313
-1313
-1312
-1312
-1314
-1314
-1315
-1315
-1315
-1315
-1316
-1319
-1322
-1327
-1335
-1343
-1351
-1357
-1361
-1360
-1351
-1335
-1314
-1287
-1246
-1192
-1130
-1065
-1001
-940
-881
-823
-773
-732
-698
-671
-657
-669
-708
-757
-817
-895
-985
-1073
-1160
-1239
-1301
-1324
-1330
-1331
-1326
-1321
-1314
-1309
-1302
-1295
-1291
-1287
-1284
-1282
-1282
-1282
-1283
-1284
-1284
-1285
-1286
-1286
-1285
-1285
-1284
-1284
-1283
-1283
-1282
-1282
-1282
-1282
-1281
-1280
-1279
-1278
-1278
-1277
-1276
-1276
-1276
-1275
-1274
-1273
-1271
-1270
-1269
-1268
-1267
-1267
-1266
-1265
-1264
-1262
-1261
-1259
-1258
-1257
-1256
-1255
-1254
-1253
-1251
-1249
-1247
-1245
-1243
-1242
-1241
-1240
-1238
-1236
-1234
-1232
-1229
-1227
-1225
-1223
-1220
-1218
-1216
-1213
-1211
-1207
-1204
-1200
-1197
-1195
-1192
-1189
-1186
-1183
-1179
-1175
-1171
-1168
-1165
-1162
-1159
-1157
-1154
-1152
-1149
-1146
-1144
-1142
-1140
-1139
-1137
-1136
-1135
-1134
-1133
-1131
-1131
-1131
-1131
-1133
-1135
-1137
-1140
-1143
-1147
-1151
-1155
-1159
-1165
-1171
-1177
-1184
-1190
-1195
-1201
-1207
-1213
-1218
-1224
-1229
-1235
-1240
-1245
-1249
-1253
-1256
-1259
-1262
-1265
-1268
-1271
-1273
-1275
-1277
-1279
-1280
-1280
-1281
-1282
-1283
-1285
-1286
-1286
-1287
-1287
-1287
-1287
-1287
-1287
-1288
-1288
-1289
-1289
-1289
-1288
-1288
-1288
-1287
-1287
-1287
-1288
-1288
-1288
-1288
-1287
-1287
-1286
-1286
-1286
-1285
-1286
-1286
-1285
-1285
-1285
-1284
-1284
-1283
-1283
-1284
-1285
-1285
-1285
-1285
-1284
-1283
-1283
-1283
-1283
-1284
-1284
-1285
-1285
-1285
-1285
-1284
-1284
-1283
-1284
-1285
-1285
-1286
-1287
-1288
-1287
-1287
-1287
-1287
-1287
-1288
-1289
-1289
-1289
-1289
-1289
-1289
-1288
-1288
-1289
-1290
-1290
-1291
-1292
-1292
-1292
-1292
-1292
-1292
-1292
-1292
-1292
-1293
-1293
-1294
-1293
-1293
-1293
-1293
-1293
-1295
-1295
-1296
-1295
-1295
-1295
-1294
-1294
-1295
-1296
-1297
-1297
-1298
-1297
-1297
-1297
-1297
-1296
-1296
-1296
-1297
-1298
-1298
-1299
-1299
-1299
-1297
-1297
-1298
-1298
-1297
-1297
-1298
-1299
-1299
-1298
-1298
-1297
-1298
-1298
-1299
-1299
-1300
-1300
-1300
-1299
-1298
-1298
-1298
-1299
-1299
-1299
-1300
-1300
-1300
-1300
-1299
-1299
-1299
-1299
-1299
-1300
-1300
-1300
-1300
-1300
-1299
-1299
-1299
-1300
-1300
-1300
-1301
-1300
-1300
-1299
-1299
-1299
-1299
-1299
-1300
-1300
-1300
-1300
-1300
-1300
-1299
-1299
-1300
-1300
-1300
-1301
-1301
-1301
-1300
-1299
-1299
-1298
-1298
-1297
-1297
-1297
-1296
-1295
-1295
-1294
-1292
-1290
-1289
-1288
-1288
-1289
-1289
-1288
-1287
-1287
-1286
-1283
-1280
-1277
-1275
-1274
-1274
-1277
-1280
-1281
-1282
-1284
-1286
-1287
-1289
-1290
-1291
-1291
-1291
-1293
-1295
-1297
-1299
-1300
-1302
-1303
-1303
-1304
-1304
-1303
-1303
-1303
-1303
-1304
-1305
-1306
-1307
-1306
-1306
-1306
-1306
-1305
-1305
-1306
-1306
-1307
-1307
-1307
-1306
-1306
-1306
-1308
-1311
-1317
-1323
-1331
-1338
-1343
-1347
-1346
-1338
-1324
-1304
-1278
-1239
-1188
-1129
-1068
-1006
-950
-896
-844
-801
-763
-729
-703
-684
-688
-721
-768
-823
-897
-980
-1067
-1152
-1231
-1292
-1314
-1322
-1328
-1331
-1328
-1322
-1315
-1310
-1301
-1293
-1287
-1283
-1279
-1276
-1275
-1276
-1276
-1276
-1277
-1276
-1275
-1275
-1275
-1274
-1274
-1274
-1275
-1274
-1274
-1274
-1273
-1271
-1270
-1270
-1269
-1269
-1269
-1268
-1268
-1266
-1265
-1264
-1262
-1261
-1260
-1260
-1259
-1259
-1258
-1256
-1255
-1254
-1252
-1251
-1250
-1249
-1248
-1247
-1246
-1245
-1243
-1241
-1239
-1238
-1237
-1236
-1234
-1233
-1232
-1229
-1227
-1225
-1223
-1220
-1219
-1217
-1215
-1213
-1210
-1208
-1205
-1202
-1199
-1197
-1194
-1191
-1189
-1186
-1183
-1180
-1177
-1174
-1170
-1167
-1164
-1162
-1159
-1157
-1154
-1152
-1149
-1146
-1144
-1142
-1141
-1140
-1138
-1137
-1135
-1134
-1133
-1131
-1131
-1130
-1130
-1131
-1132
-1134
-1137
-1139
-1142
-1144
-1148
-1152
-1157
-1162
-1169
-1174
-1179
-1185
-1191
-1196
-1202
-1207
-1213
-1218
-1224
-1229
-1234
-1238
-1242
-1245
-1248
-1251
-1255
-1258
-1261
-1264
-1266
-1267
-1268
-1269
-1271
-1272
-1273
-1274
-1275
-1277
-1277
-1278
-1278
-1278
-1278
-1278
-1279
-1280
-1280
-1280
-1281
-1281
-1280
-1280
-1280
-1280
-1280
-1280
-1281
-1280
-1280
-1280
-1279
-1279
-1278
-1278
-1278
-1278
-1278
-1279
-1278
-1278
-1278
-1277
-1277
-1277
-1278
-1277
-1278
-1277
-1277
-1277
-1277
-1276
-1276
-1276
-1277
-1277
-1278
-1278
-1278
-1278
-1278
-1277
-1277
-1278
-1278
-1279
-1279
-1280
-1280
-1279
-1279
-1280
-1279
-1280
-1281
-1281
-1282
-1282
-1283
-1283
-1283
-1283
-1283
-1283
-1284
-1285
-1285
-1286
-1286
-1286
-1285
-1285
-1286
-1286
-1287
-1287
-1288
-1288
-1289
-1289
-1288
-1288
-1289
-1289
-1289
-1289
-1290
-1291
-1291
-1291
-1290
-1290
-1290
-1291
-1292
-1292
-1292
-1293
-1293
-1293
-1293
-1293
-1292
-1293
-1294
-1294
-1294
-1294
-1295
-1295
-1294
-1294
-1294
-1294
-1295
-1295
-1296
-1296
-1296
-1295
-1295
-1295
-1295
-1295
-1295
-1296
-1297
-1297
-1297
-1297
-1297
-1296
-1297
-1297
-1297
-1297
-1298
-1298
-1298
-1297
-1297
-1297
-1297
-1297
-1298
-1298
-1299
-1298
-1298
-1298
-1298
-1298
-1298
-1298
-1299
-1299
-1299
-1299
-1299
-1299
-1299
-1298
-1298
-1297
-1297
-1298
-1296
-1296
-1295
-1294
-1294
-1293
-1292
-1291
-1289
-1288
-1288
-1288
-1288
-1288
-1286
-1286
-1285
-1284
-1282
-1278
-1276
-1275
-1274
-1275
-1277
-1279
-1281
-1283
-1286
-1288
-1290
-1291
-1292
-1292
-1292
-1293
-1295
-1297
-1300
-1301
-1303
-1304
-1305
-1305
-1305
-1306
-1307
-1307
-1308
-1309
-1309
-1309
-1309
-1309
-1309
-1308
-1309
-1309
-1310
-1310
-1310
-1310
-1310
-1310
-1310
-1310
-1310
-1312
-1316
-1320
-1325
-1333
-1341
-1347
-1353
-1356
-1355
-1346
-1331
-1310
-1282
-1238
-1182
-1120
-1055
-992
-933
-875
-821
-775
-735
-701
-673
-659
-671
-709
-758
-821
-902
-992
-1082
-1169
-1250
-1305
-1322
-1328
-1330
-1327
-1322
-1316
-1311
-1305
-1297
-1291
-1285
-1282
-1280
-1280
-1281
-1282
-1283
-1284
-1283
-1283
-1283
-1283
-1283
-1283
-1283
-1283
-1283
-1282
-1281
-1280
-1280
-1279
-1278
-1278
-1277
-1277
-1276
-1276
-1275
-1273
-1272
-1271
-1271
-1270
-1270
-1269
-1268
-1267
-1265
-1264
-1263
-1262
-1261
-1260
-1260
-1259
-1257
-1256
-1254
-1253
-1251
-1250
-1249
-1247
-1246
-1245
-1243
-1241
-1239
-1237
-1235
-1233
-1231
-1230
-1228
-1226
-1224
-1222
-1219
-1216
-1213
-1210
-1207
-1205
-1202
-1200
-1196
-1193
-1189
-1185
-1182
-1179
-1176
-1173
-1171
-1168
-1165
-1163
-1159
-1156
-1154
-1151
-1149
-1148
-1146
-1145
-1143
-1141
-1139
-1138
-1137
-1136
-1136
-1136
-1137
-1138
-1139
-1141
-1143
-1145
-1149
-1153
-1158
-1163
-1169
-1174
-1180
-1185
-1191
-1196
-1202
-1208
-1215
-1220
-1226
-1232
-1237
-1242
-1246
-1250
-1253
-1257
-1262
-1265
-1268
-1271
-1273
-1276
-1278
-1279
-1280
-1282
-1283
-1285
-1286
-1287
-1288
-1288
-1288
-1288
-1289
-1289
-1290
-1291
-1291
-1291
-1291
-1292
-1291
-1291
-1290
-1290
-1291
-1291
-1291
-1292
-1292
-1291
-1290
-1290
-1290
-1290
-1290
-1290
-1290
-1290
-1290
-1289
-1288
-1288
-1288
-1288
-1288
-1289
-1288
-1288
-1288
-1288
-1287
-1287
-1286
-1287
-1287
-1288
-1289
-1289
-1288
-1288
-1288
-1287
-1288
-1289
-1289
-1290
-1290
-1290
-1291
-1291
-1290
-1290
-1290
-1291
-1292
-1292
-1293
-1293
-1293
-1293
-1293
-1293
-1293
-1293
-1295
-1296
-1296
-1296
-1297
-1297
-1296
-1296
-1297
-1297
-1298
-1299
-1299
-1299
-1299
-1299
-1299
-1299
-1299
-1300
-1301
-1301
-1302
-1302
-1302
-1302
-1301
-1301
-1301
-1302
-1302
-1303
-1304
-1303
-1303
-1303
-1303
-1303
-1303
-1303
-1304
-1304
-1305
-1305
-1305
-1305
-1304
-1304
-1304
-1305
-1305
-1306
-1306
-1306
-1306
-1305
-1305
-1305
-1305
-1305
-1306
-1306
-1306
-1307
-1306
-1306
-1306
-1305
-1305
-1306
-1307
-1307
-1307
-1307
-1307
-1307
-1306
-1306
-1306
-1307
-1307
-1308
-1308
-1308
-1308
-1307
-1307
-1306
-1307
-1307
-1308
-1308
-1308
-1308
-1308
-1308
-1307
-1307
-1307
-1308
-1308
-1308
-1308
-1308
-1308
-1308
-1307
-1307
-1307
-1306
-1307
-1306
-1306
-1305
-1303
-1302
-1301
-1301
-1301
-1299
-1298
-1297
-1297
-1296
-1296
-1296
-1295
-1295
-1294
-1293
-1290
-1288
-1284
-1283
-1282
-1282
-1284
-1287
-1289
-1292
-1294
-1296
-1297
-1298
-1299
-1299
-1300
-1300
-1302
-1304
-1307
-1308
-1310
-1311
-1311
-1311
-1312
-1312
-1313
-1314
-1314
-1315
-1315
-1315
-1315
-1315
-1314
-1314
-1314
-1315
-1315
-1315
-1316
-1315
-1315
-1315
-1315
-1315
-1315
-1317
-1320
-1323
-1329
-1336
-1343
-1350
-1356
-1361
-1361
-1353
-1339
-1319
-1291
-1250
-1196
-1133
-1067
-1003
-943
-884
-827
-778
-737
-700
-671
-655
-666
-704
-754
-817
-898
-988
-1077
-1164
-1244
-1304
-1324
-1330
-1332
-1329
-1323
-1317
-1312
-1304
-1296
-1290
-1286
-1283
-1281
-1282
-1283
-1284
-1284
-1285
-1284
-1284
-1283
-1283
-1283
-1284
-1284
-1284
-1283
-1282
-1282
-1280
-1279
-1279
-1279
-1279
-1279
-1278
-1277
-1276
-1275
-1274
-1273
-1272
-1271
-1270
-1270
-1269
-1268
-1266
-1265
-1263
-1262
-1261
-1261
-1260
-1259
-1258
-1257
-1254
-1253
-1251
-1249
-1248
-1247
-1245
-1244
-1244
-1242
-1240
-1238
-1236
-1234
-1232
-1230
-1228
-1226
-1224
-1222
-1219
-1216
-1213
-1211
-1208
-1205
-1203
-1199
-1197
-1193
-1190
-1187
-1183
-1181
-1177
-1174
-1171
-1169
-1166
-1163
-1160
-1157
-1154
-1152
-1150
-1148
-1146
-1144
-1142
-1140
-1138
-1136
-1134
-1133
-1133
-1132
-1133
-1133
-1133
-1134
-1135
-1137
-1140
-1143
-1147
-1152
-1157
-1162
-1168
-1173
-1179
-1183
-1189
-1195
-1201
-1208
-1213
-1219
-1225
-1229
-1233
-1238
-1243
-1247
-1252
-1255
-1259
-1262
-1265
-1267
-1269
-1271
-1272
-1273
-1275
-1276
-1278
-1280
-1281
-1281
-1281
-1282
-1283
-1283
-1283
-1285
-1285
-1285
-1285
-1285
-1285
-1285
-1284
-1284
-1284
-1284
-1285
-1285
-1285
-1285
-1284
-1283
-1283
-1283
-1283
-1284
-1284
-1283
-1283
-1283
-1282
-1282
-1282
-1282
-1283
-1282
-1282
-1281
-1281
-1281
-1281
-1280
-1280
-1280
-1280
-1281
-1281
-1282
-1281
-1281
-1281
-1281
-1281
-1281
-1282
-1283
-1283
-1283
-1283
-1283
-1282
-1282
-1282
-1282
-1283
-1285
-1286
-1286
-1286
-1287
-1286
-1285
-1286
-1286
-1287
-1287
-1287
-1288
-1288
-1288
-1288
-1288
-1288
-1289
-1290
-1291
-1292
-1292
-1293
-1293
-1292
-1291
-1291
-1292
-1293
-1293
-1293
-1293
-1294
-1294
-1293
-1293
-1294
-1294
-1294
-1295
-1295
-1295
-1296
-1295
-1295
-1295
-1295
-1295
-1296
-1296
-1297
-1296
-1296
-1296
-1296
-1296
-1296
-1297
-1297
-1298
-1298
-1298
-1298
-1298
-1296
-1296
-1296
-1297
-1297
-1298
-1299
-1299
-1299
-1299
-1298
-1298
-1298
-1298
-1299
-1299
-1300
-1300
-1300
-1299
-1298
-1298
-1298
-1299
-1299
-1300
-1300
-1301
-1300
-1300
-1300
-1299
-1299
-1300
-1300
-1300
-1300
-1300
-1300
-1299
-1298
-1298
-1298
-1298
-1297
-1297
-1297
-1296
-1296
-1296
-1294
-1292
-1290
-1289
-1289
-1289
-1290
-1290
-1289
-1289
-1288
-1286
-1283
-1280
-1277
-1276
-1274
-1275
-1278
-1280
-1282
-1283
-1286
-1288
-1289
-1291
-1293
-1294
-1294
-1295
-1296
-1298
-1300
-1302
-1304
-1305
-1305
-1306
-1306
-1306
-1306
-1307
-1307
-1308
-1308
-1309
-1309
-1309
-1309
-1309
-1309
-1308
-1308
-1309
-1310
-1310
-1310
-1310
-1311
-1311
-1309
-1310
-1312
-1316
-1321
-1328
-1336
-1342
-1348
-1351
-1350
-1341
-1327
-1307
-1280
-1240
-1190
-1131
-1070
-1009
-952
-898
-847
-806
-770
-736
-711
-694
-698
-727
-772
-829
-905
-988
-1077
-1165
-1244
-1300
-1319
-1326
-1333
-1337
-1334
-1328
-1321
-1316
-1309
-1300
-1294
-1289
-1285
-1283
-1282
-1282
-1283
-1283
-1284
-1284
-1284
-1283
-1282
-1282
-1282
-1281
-1281
-1282
-1281
-1281
-1280
-1279
-1278
-1277
-1277
-1277
-1277
-1276
-1275
-1274
-1273
-1272
-1270
-1270
-1270
-1269
-1268
-1267
-1267
-1266
-1264
-1262
-1261
-1260
-1259
-1258
-1258
-1257
-1255
-1254
-1252
-1250
-1249
-1247
-1246
-1245
-1244
-1243
-1241
-1239
-1237
-1235
-1233
-1231
-1230
-1228
-1226
-1224
-1222
-1219
-1216
-1213
-1210
-1207
-1205
-1202
-1199
-1197
-1194
-1191
-1187
-1183
-1180
-1178
-1176
-1173
-1171
-1168
-1166
-1163
-1160
-1158
-1155
-1154
-1153
-1151
-1150
-1149
-1147
-1146
-1145
-1144
-1143
-1143
-1144
-1146
-1147
-1149
-1152
-1155
-1158
-1161
-1166
-1170
-1176
-1182
-1187
-1193
-1199
-1204
-1209
-1214
-1220
-1225
-1231
-1236
-1241
-1246
-1250
-1254
-1258
-1261
-1264
-1267
-1270
-1273
-1275
-1277
-1279
-1281
-1282
-1283
-1284
-1285
-1287
-1288
-1289
-1290
-1290
-1290
-1291
-1291
-1291
-1291
-1292
-1293
-1293
-1294
-1293
-1293
-1293
-1292
-1292
-1292
-1293
-1293
-1293
-1293
-1292
-1292
-1291
-1290
-1290
-1290
-1291
-1291
-1291
-1291
-1290
-1290
-1289
-1289
-1289
-1289
-1290
-1290
-1289
-1290
-1290
-1289
-1289
-1288
-1289
-1289
-1290
-1290
-1290
-1291
-1291
-1290
-1290
-1290
-1290
-1291
-1291
-1292
-1293
-1293
-1294
-1294
-1293
-1293
-1293
-1294
-1295
-1295
-1297
-1297
-1297
-1297
-1297
-1297
-1297
-1298
-1299
-1300
-1300
-1300
-1300
-1300
-1300
-1301
-1301
-1302
-1302
-1303
-1303
-1304
-1304
-1304
-1303
-1303
-1303
-1304
-1305
-1306
-1306
-1306
-1306
-1306
-1305
-1305
-1306
-1306
-1307
-1308
-1308
-1308
-1308
-1307
-1307
-1307
-1308
-1308
-1308
-1309
-1309
-1309
-1309
-1309
-1309
-1308
-1309
-1309
-1310
-1310
-1311
-1311
-1310
-1310
-1309
-1309
-1310
-1310
-1310
-1311
-1311
-1311
-1311
-1310
-1310
-1310
-1311
-1311
-1311
-1312
-1311
-1312
-1312
-1311
-1310
-1311
-1311
-1312
-1312
-1312
-1313
-1313
-1312
-1312
-1312
-1312
-1312
-1312
-1313
-1313
-1313
-1313
-1313
-1312
-1311
-1311
-1311
-1310
-1309
-1309
-1308
-1307
-1307
-1306
-1304
-1301
-1300
-1301
-1301
-1301
-1302
-1301
-1301
-1300
-1298
-1294
-1292
-1289
-1288
-1288
-1289
-1291
-1293
-1295
-1297
-1299
-1301
-1303
-1304
-1305
-1306
-1307
-1308
-1308
-1310
-1312
-1314
-1316
-1318
-1319
-1319
-1320
-1320
-1320
-1321
-1321
-1320
-1321
-1322
-1323
-1323
-1323
-1322
-1322
-1322
-1322
-1323
-1323
-1323
-1323
-1324
-1324
-1324
-1323
-1324
-1327
-1330
-1336
-1344
-1352
-1360
-1366
-1370
-1371
-1363
-1348
-1328
-1302
-1263
-1210
-1147
-1081
-1015
-953
-893
-834
-784
-743
-707
-678
-662
-671
-708
-758
-818
-898
-989
-1078
-1166
-1247
-1310
-1333
-1340
-1341
-1337
-1331
-1326
-1322
-1315
-1307
-1302
-1298
-1294
-1292
-1292
-1292
-1293
-1295
-1295
-1296
-1296
-1296
-1295
-1294
-1294
-1294
-1295
-1294
-1294
-1294
-1293
-1292
-1291
-1290
-1290
-1289
-1288
-1288
-1288
-1287
-1286
-1285
-1284
-1283
-1282
-1281
-1280
-1280
-1279
-1278
-1277
-1276
-1274
-1272
-1271
-1270
-1270
-1269
-1268
-1266
-1265
-1264
-1262
-1260
-1258
-1257
-1256
-1254
-1252
-1251
-1249
-1247
-1244
-1242
-1240
-1238
-1236
-1234
-1232
-1229
-1227
-1224
-1221
-1217
-1214
-1212
-1209
-1206
-1203
-1200
-1196
-1193
-1189
-1185
-1182
-1179
-1177
-1175
-1172
-1169
-1166
-1163
-1161
-1158
-1156
-1155
-1153
-1152
-1151
-1149
-1148
-1147
-1146
-1145
-1145
-1145
-1147
-1149
-1151
-1153
-1157
-1160
-1164
-1168
-1173
-1178
-1185
-1191
-1197
-1203
-1208
-1214
-1220
-1225
-1231
-1237
-1243
-1248
-1253
-1258
-1262
-1266
-1269
-1272
-1275
-1278
-1282
-1284
-1286
-1288
-1290
-1291
-1292
-1293
-1294
-1296
-1297
-1298
-1299
-1300
-1300
-1300
-1300
-1300
-1301
-1301
-1302
-1302
-1302
-1302
-1302
-1302
-1301
-1301
-1301
-1301
-1302
-1302
-1301
-1301
-1301
-1300
-1300
-1299
-1300
-1299
-1299
-1299
-1299
-1299
-1299
-1299
-1298
-1298
-1298
-1297
-1298
-1298
-1298
-1298
-1297
-1297
-1296
-1296
-1296
-1297
-1297
-1297
-1298
-1298
-1298
-1297
-1297
-1297
-1298
-1298
-1299
-1299
-1299
-1299
-1300
-1300
-1299
-1299
-1300
-1300
-1301
-1301
-1302
-1302
-1303
-1302
-1302
-1302
-1303
-1304
-1304
-1305
-1305
-1305
-1305
-1305
-1304
-1304
-1305
-1305
-1306
-1307
-1307
-1307
-1307
-1307
-1307
-1307
-1307
-1307
-1308
-1309
-1309
-1309
-1310
-1309
-1309
-1309
-1309
-1310
-1309
-1310
-1310
-1309
-1309
-1309
-1309
-1310
-1310
-1310
-1311
-1311
-1312
-1311
-1311
-1311
-1310
-1311
-1311
-1311
-1312
-1313
-1313
-1312
-1312
-1311
-1310
-1310
-1310
-1311
-1312
-1312
-1312
-1312
-1312
-1312
-1311
-1311
-1312
-1313
-1313
-1313
-1313
-1313
-1313
-1312
-1312
-1311
-1312
-1312
-1312
-1313
-1313
-1312
-1312
-1311
-1311
-1312
-1313
-1313
-1314
-1313
-1313
-1313
-1313
-1312
-1312
-1312
-1312
-1313
-1313
-1313
-1313
-1312
-1312
-1311
-1312
-1312
-1312
-1312
-1312
-1312
-1312
-1311
-1310
-1309
-1308
-1308
-1308
-1308
-1306
-1304
-1302
-1301
-1300
-1299
-1300
-1300
-1301
-1301
-1301
-1298
-1295
-1291
-1288
-1286
-1285
-1287
-1291
-1293
-1296
-1298
-1299
-1300
-1301
-1302
-1303
-1304
-1305
-1306
-1308
-1310
-1312
-1312
-1314
-1315
-1315
-1315
-1316
-1318
-1319
-1319
-1319
-1318
-1318
-1319
-1318
-1319
-1319
-1319
-1320
-1320
-1320
-1319
-1319
-1319
-1319
-1320
-1321
-1320
-1320
-1323
-1325
-1328
-1333
-1338
-1347
-1354
-1360
-1364
-1363
-1354
-1337
-1316
-1286
-1244
-1189
-1128
-1066
-1005
-949
-894
-843
-799
-759
-725
-700
-686
-701
-742
-791
-852
-931
-1014
-1101
-1184
-1262
-1314
-1331
-1339
-1346
-1345
-1339
-1332
-1326
-1318
-1309
-1303
-1298
-1294
-1292
-1290
-1289
-1289
-1289
-1289
-1290
-1291
-1290
-1290
-1290
-1290
-1290
-1289
-1288
-1287
-1287
-1286
-1286
-1286
-1286
-1285
-1284
-1283
-1282
-1281
-1280
-1280
-1279
-1278
-1277
-1277
-1276
-1275
-1273
-1272
-1271
-1271
-1270
-1268
-1267
-1266
-1264
-1262
-1261
-1259
-1259
-1258
-1257
-1256
-1254
-1253
-1251
-1249
-1248
-1246
-1244
-1243
-1242
-1240
-1238
-1236
-1234
-1231
-1228
-1225
-1223
-1221
-1219
-1216
-1214
-1211
-1208
-1205
-1201
-1198
-1196
-1193
-1190
-1187
-1184
-1182
-1178
-1175
-1172
-1169
-1166
-1165
-1163
-1161
-1159
-1157
-1155
-1153
-1151
-1150
-1149
-1148
-1147
-1147
-1147
-1146
-1146
-1147
-1148
-1149
-1152
-1155
-1159
-1164
-1168
-1173
-1177
-1182
-1187
-1192
-1198
-1204
-1210
-1216
-1222
-1227
-1232
-1236
-1241
-1245
-1250
-1254
-1258
-1262
-1266
-1269
-1271
-1273
-1276
-1277
-1280
-1282
-1283
-1285
-1287
-1287
-1288
-1288
-1289
-1290
-1291
-1292
-1292
-1293
-1293
-1293
-1293
-1293
-1293
-1293
-1294
-1294
-1295
-1295
-1295
-1295
-1295
-1294
-1293
-1293
-1293
-1293
-1294
-1294
-1294
-1293
-1292
-1291
-1291
-1291
-1292
-1292
-1292
-1292
-1292
-1292
-1291
-1290
-1290
-1290
-1290
-1291
-1291
-1291
-1291
-1291
-1290
-1290
-1290
-1290
-1291
-1291
-1292
-1292
-1292
-1292
-1292
-1292
-1292
-1293
-1294
-1294
-1295
-1295
-1296
-1296
-1296
-1296
-1296
-1296
-1297
-1298
-1298
-1299
-1299
-1299
-1299
-1300
-1300
-1301
-1301
-1302
-1302
-1303
-1303
-1303
-1303
-1303
-1303
-1304
-1304
-1305
-1306
-1306
-1306
-1306
-1306
-1306
-1306
-1306
-1307
-1308
-1308
-1308
-1308
-1308
-1308
-1308
-1308
-1308
-1309
-1310
-1310
-1310
-1310
-1310
-1310
-1309
-1309
-1310
-1311
-1311
-1311
-1311
-1311
-1311
-1311
-1310
-1310
-1311
-1312
-1312
-1312
-1312
-1312
-1312
-1312
-1311
-1311
-1312
-1312
-1313
-1313
-1313
-1313
-1313
-1313
-1313
-1312
-1313
-1313
-1314
-1314
-1314
-1314
-1313
-1313
-1313
-1313
-1313
-1314
-1314
-1315
-1315
-1314
-1314
-1314
-1314
-1314
-1314
-1315
-1315
-1316
-1316
-1315
-1314
-1313
-1312
-1311
-1311
-1310
-1310
-1310
-1310
-1309
-1307
-1304
-1303
-1302
-1302
-1302
-1303
-1304
-1304
-1303
-1301
-1298
-1294
-1291
-1290
-1290
-1291
-1294
-1296
-1298
-1300
-1301
-1303
-1304
-1306
-1307
-1308
-1309
-1310
-1311
-1312
-1314
-1315
-1317
-1319
-1320
-1321
-1322
-1322
-1323
-1323
-1322
-1322
-1323
-1324
-1324
-1325
-1325
-1325
-1325
-1324
-1324
-1324
-1324
-1325
-1325
-1326
-1327
-1327
-1327
-1327
-1328
-1331
-1335
-1343
-1351
-1359
-1366
-1372
-1374
-1369
-1357
-1339
-1317
-1283
-1235
-1176
-1112
-1047
-985
-925
-866
-812
-768
-730
-698
-674
-670
-694
-737
-790
-861
-947
-1038
-1129
-1214
-1290
-1329
-1340
-1344
-1343
-1338
-1332
-1326
-1321
-1314
-1307
-1302
-1298
-1295
-1294
-1294
-1294
-1295
-1296
-1297
-1297
-1297
-1297
-1297
-1296
-1295
-1295
-1295
-1295
-1295
-1295
-1294
-1293
-1292
-1291
-1290
-1289
-1289
-1289
-1288
-1287
-1287
-1286
-1284
-1283
-1281
-1281
-1280
-1280
-1279
-1278
-1277
-1276
-1274
-1273
-1272
-1270
-1270
-1269
-1268
-1266
-1265
-1263
-1261
-1259
-1258
-1257
-1255
-1254
-1252
-1251
-1249
-1247
-1244
-1242
-1239
-1238
-1236
-1234
-1232
-1229
-1227
-1224
-1220
-1217
-1214
-1211
-1208
-1205
-1202
-1200
-1196
-1193
-1189
-1186
-1183
-1180
-1177
-1174
-1172
-1170
-1167
-1165
-1162
-1159
-1157
-1156
-1155
-1154
-1152
-1151
-1150
-1149
-1148
-1147
-1147
-1148
-1150
-1153
-1155
-1157
-1161
-1165
-1169
-1174
-1178
-1184
-1189
-1196
-1202
-1208
-1214
-1220
-1225
-1231
-1236
-1242
-1247
-1253
-1258
-1262
-1266
-1270
-1273
-1275
-1278
-1281
-1284
-1286
-1289
-1291
-1292
-1293
-1295
-1295
-1296
-1297
-1299
-1300
-1301
-1301
-1302
-1302
-1302
-1302
-1302
-1302
-1303
-1303
-1303
-1304
-1304
-1304
-1303
-1303
-1303
-1303
-1303
-1303
-1303
-1303
-1303
-1302
-1302
-1302
-1301
-1301
-1302
-1302
-1302
-1302
-1301
-1300
-1300
-1299
-1299
-1300
-1300
-1300
-1300
-1300
-1300
-1300
-1300
-1299
-1299
-1300
-1300
-1301
-1302
-1301
-1301
-1301
-1301
-1301
-1301
-1301
-1302
-1303
-1303
-1304
-1304
-1304
-1304
-1304
-1304
-1304
-1305
-1305
-1306
-1306
-1307
-1307
-1307
-1307
-1307
-1308
-1309
-1309
-1310
-1310
-1310
-1310
-1310
-1309
-1310
-1311
-1312
-1312
-1312
-1312
-1313
-1312
-1312
-1312
-1313
-1313
-1313
-1314
-1315
-1315
-1315
-1314
-1314
-1314
-1315
-1315
-1315
-1316
-1316
-1316
-1316
-1316
-1315
-1315
-1315
-1316
-1316
-1317
-1317
-1317
-1317
-1317
-1316
-1316
-1316
-1316
-1317
-1318
-1318
-1317
-1317
-1317
-1316
-1317
-1317
-1317
-1318
-1318
-1318
-1319
-1318
-1318
-1318
-1318
-1318
-1318
-1319
-1319
-1319
-1319
-1318
-1317
-1317
-1317
-1317
-1318
-1318
-1318
-1318
-1319
-1319
-1318
-1317
-1317
-1318
-1319
-1319
-1319
-1319
-1319
-1318
-1318
-1318
-1317
-1318
-1318
-1318
-1319
-1319
-1319
-1319
-1318
-1318
-1318
-1317
-1318
-1318
-1318
-1318
-1318
-1316
-1316
-1315
-1314
-1313
-1313
-1313
-1313
-1313
-1312
-1311
-1308
-1306
-1305
-1305
-1305
-1307
-1306
-1306
-1305
-1304
-1301
-1297
-1293
-1291
-1291
-1290
-1292
-1295
-1297
-1299
-1300
-1302
-1304
-1305
-1307
-1307
-1308
-1309
-1310
-1311
-1314
-1315
-1317
-1319
-1320
-1320
-1321
-1322
-1323
-1323
-1323
-1322
-1322
-1322
-1322
-1323
-1323
-1323
-1323
-1323
-1322
-1323
-1323
-1323
-1323
-1324
-1325
-1325
-1326
-1325
-1325
-1328
-1331
-1337
-1345
-1353
-1361
-1367
-1370
-1367
-1356
-1339
-1318
-1288
-1244
-1188
-1125
-1060
-998
-940
-882
-828
-782
-742
-708
-683
-674
-694
-737
-788
-854
-935
-1024
-1113
-1198
-1275
-1323
-1338
-1344
-1346
-1342
-1335
-1328
-1323
-1316
-1308
-1303
-1298
-1294
-1291
-1290
-1290
-1291
-1293
-1294
-1294
-1294
-1294
-1294
-1293
-1292
-1291
-1291
-1291
-1291
-1291
-1291
-1290
-1289
-1288
-1286
-1286
-1285
-1285
-1284
-1284
-1283
-1282
-1281
-1280
-1280
-1278
-1276
-1276
-1276
-1275
-1273
-1271
-1271
-1269
-1267
-1266
-1266
-1265
-1264
-1262
-1261
-1260
-1257
-1255
-1253
-1252
-1252
-1250
-1248
-1246
-1245
-1243
-1241
-1238
-1236
-1234
-1232
-1230
-1227
-1226
-1224
-1222
-1219
-1215
-1213
-1210
-1207
-1204
-1202
-1199
-1195
-1192
-1189
-1185
-1181
-1179
-1176
-1173
-1172
-1169
-1167
-1164
-1162
-1159
-1157
-1155
-1154
-1152
-1151
-1150
-1149
-1147
-1146
-1146
-1145
-1145
-1146
-1148
-1150
-1153
-1156
-1160
-1163
-1167
-1171
-1175
-1181
-1187
-1193
-1199
-1205
-1210
-1216
-1221
-1226
-1232
-1237
-1243
-1248
-1252
-1257
-1260
-1263
-1266
-1269
-1272
-1275
-1278
-1280
-1282
-1284
-1286
-1286
-1287
-1287
-1288
-1290
-1292
-1292
-1293
-1293
-1294
-1294
-1294
-1294
-1295
-1295
-1296
-1296
-1296
-1296
-1296
-1295
-1295
-1295
-1295
-1295
-1295
-1296
-1295
-1295
-1295
-1295
-1294
-1294
-1293
-1293
-1294
-1294
-1293
-1293
-1293
-1293
-1292
-1292
-1292
-1292
-1292
-1292
-1293
-1293
-1292
-1291
-1291
-1291
-1291
-1292
-1293
-1293
-1293
-1293
-1293
-1293
-1293
-1293
-1293
-1293
-1293
-1294
-1294
-1294
-1294
-1294
-1295
-1295
-1296
-1296
-1297
-1298
-1298
-1299
-1299
-1299
-1299
-1298
-1299
-1300
-1301
-1302
-1301
-1302
-1302
-1302
-1302
-1302
-1303
-1303
-1304
-1304
-1304
-1304
-1304
-1304
-1304
-1304
-1304
-1306
-1306
-1307
-1307
-1307
-1307
-1306
-1306
-1307
-1307
-1307
-1307
-1308
-1309
-1309
-1308
-1308
-1308
-1308
-1308
-1309
-1309
-1309
-1310
-1310
-1309
-1309
-1309
-1309
-1309
-1310
-1310
-1310
-1311
-1311
-1310
-1310
-1310
-1310
-1310
-1311
-1311
-1311
-1311
-1311
-1311
-1311
-1310
-1311
-1311
-1311
-1312
-1312
-1312
-1312
-1312
-1311
-1311
-1312
-1312
-1312
-1312
-1313
-1313
-1313
-1313
-1312
-1312
-1313
-1313
-1313
-1313
-1313
-1313
-1313
-1313
-1313
-1312
-1313
-1313
-1313
-1313
-1312
-1312
-1312
-1311
-1310
-1309
-1309
-1309
-1309
-1310
-1308
-1306
-1304
-1303
-1302
-1302
-1302
-1302
-1301
-1301
-1301
-1299
-1295
-1291
-1288
-1287
-1287
-1290
-1292
-1295
-1297
-1299
-1301
-1301
-1302
-1304
-1305
-1306
-1307
-1309
-1311
-1313
-1314
-1315
-1316
-1317
-1318
-1319
-1319
-1320
-1320
-1321
-1320
-1320
-1320
-1320
-1321
-1322
-1322
-1323
-1323
-1323
-1323
-1322
-1322
-1322
-1322
-1323
-1324
-1324
-1324
-1326
-1328
-1331
-1337
-1344
-1351
-1358
-1364
-1367
-1364
-1353
-1336
-1313
-1281
-1237
-1182
-1121
-1059
-999
-943
-888
-839
-798
-761
-730
-708
-697
-714
-750
-799
-861
-941
-1026
-1116
-1200
-1278
-1322
-1335
-1341
-1348
-1347
-1342
-1335
-1328
-1322
-1315
-1308
-1303
-1300
-1297
-1295
-1295
-1295
-1295
-1295
-1296
-1297
-1297
-1297
-1297
-1296
-1295
-1293
-1293
-1293
-1293
-1293
-1293
-1293
-1292
-1291
-1290
-1289
-1288
-1287
-1287
-1287
-1286
-1285
-1284
-1283
-1282
-1280
-1279
-1278
-1278
-1277
-1277
-1276
-1275
-1273
-1272
-1270
-1269
-1268
-1267
-1266
-1265
-1264
-1263
-1261
-1258
-1256
-1255
-1253
-1252
-1251
-1249
-1248
-1246
-1243
-1240
-1238
-1236
-1234
-1232
-1230
-1228
-1225
-1223
-1220
-1216
-1213
-1210
-1207
-1204
-1201
-1198
-1195
-1192
-1189
-1186
-1183
-1180
-1178
-1175
-1173
-1171
-1169
-1167
-1165
-1162
-1160
-1159
-1158
-1156
-1156
-1155
-1155
-1154
-1154
-1154
-1155
-1156
-1158
-1161
-1164
-1168
-1172
-1177
-1181
-1186
-1191
-1196
-1202
-1208
-1214
-1220
-1226
-1232
-1237
-1241
-1246
-1251
-1256
-1261
-1265
-1269
-1273
-1276
-1278
-1281
-1283
-1285
-1287
-1290
-1292
-1293
-1295
-1296
-1296
-1297
-1298
-1299
-1299
-1300
-1301
-1302
-1303
-1302
-1302
-1302
-1302
-1302
-1303
-1303
-1303
-1303
-1303
-1303
-1302
-1301
-1301
-1301
-1302
-1302
-1302
-1302
-1301
-1301
-1301
-1300
-1299
-1299
-1299
-1300
-1300
-1300
-1300
-1300
-1299
-1298
-1298
-1298
-1299
-1299
-1299
-1299
-1300
-1299
-1299
-1299
-1298
-1299
-1300
-1300
-1301
-1301
-1301
-1301
-1301
-1301
-1301
-1301
-1302
-1303
-1304
-1304
-1304
-1304
-1304
-1304
-1304
-1305
-1306
-1306
-1307
-1308
-1308
-1309
-1308
-1308
-1308
-1309
-1309
-1310
-1310
-1311
-1311
-1311
-1311
-1311
-1311
-1311
-1312
-1313
-1314
-1314
-1314
-1314
-1314
-1313
-1313
-1314
-1315
-1315
-1316
-1316
-1316
-1316
-1316
-1315
-1316
-1316
-1316
-1316
-1317
-1318
-1318
-1317
-1317
-1317
-1317
-1317
-1317
-1318
-1318
-1319
-1319
-1318
-1317
-1317
-1317
-1318
-1318
-1319
-1319
-1319
-1319
-1319
-1319
-1318
-1318
-1318
-1319
-1319
-1320
-1320
-1320
-1320
-1319
-1319
-1319
-1319
-1319
-1320
-1320
-1320
-1320
-1320
-1319
-1320
-1319
-1320
-1321
-1321
-1321
-1322
-1321
-1321
-1320
-1320
-1320
-1321
-1321
-1321
-1322
-1322
-1322
-1321
-1321
-1321
-1321
-1321
-1322
-1322
-1322
-1322
-1322
-1322
-1321
-1321
-1321
-1321
-1321
-1320
-1320
-1320
-1318
-1317
-1316
-1315
-1316
-1315
-1313
-1311
-1311
-1311
-1310
-1310
-1309
-1308
-1308
-1308
-1307
-1304
-1301
-1298
-1297
-1295
-1296
-1299
-1301
-1304
-1307
-1309
-1311
-1311
-1313
-1313
-1313
-1314
-1315
-1317
-1319
-1322
-1323
-1324
-1326
-1326
-1326
-1326
-1327
-1328
-1329
-1329
-1329
-1329
-1329
-1329
-1329
-1329
-1329
-1330
-1330
-1330
-1331
-1331
-1331
-1330
-1331
-1331
-1331
-1331
-1333
-1336
-1340
-1346
-1353
-1361
-1368
-1373
-1378
-1376
-1366
-1350
-1329
-1298
-1253
-1195
-1130
-1064
-1002
-942
-882
-826
-778
-738
-704
-678
-670
-689
-733
-785
-853
-937
-1028
-1117
-1202
-1278
-1328
-1341
-1347
-1347
-1342
-1337
-1331
-1326
-1318
-1311
-1305
-1301
-1299
-1298
-1298
-1300
-1300
-1301
-1301
-1301
-1301
-1301
-1301
-1301
-1301
-1301
-1301
-1300
-1299
-1298
-1297
-1297
-1297
-1297
-1296
-1295
-1295
-1294
-1293
-1292
-1291
-1290
-1289
-1288
-1288
-1288
-1287
-1286
-1284
-1282
-1281
-1280
-1279
-1278
-1278
-1277
-1276
-1274
-1272
-1270
-1269
-1267
-1266
-1265
-1264
-1263
-1261
-1259
-1257
-1255
-1253
-1251
-1250
-1248
-1246
-1244
-1242
-1240
-1237
-1233
-1230
-1229
-1226
-1224
-1221
-1218
-1215
-1212
-1208
-1205
-1202
-1198
-1195
-1193
-1189
-1186
-1184
-1181
-1178
-1174
-1171
-1169
-1167
-1166
-1164
-1162
-1160
-1158
-1156
-1155
-1153
-1152
-1152
-1151
-1152
-1152
-1153
-1154
-1155
-1157
-1160
-1164
-1168
-1173
-1178
-1183
-1189
-1194
-1199
-1205
-1210
-1217
-1223
-1229
-1235
-1241
-1246
-1251
-1256
-1260
-1264
-1269
-1273
-1277
-1280
-1283
-1286
-1288
-1289
-1291
-1293
-1294
-1296
-1298
-1299
-1300
-1301
-1302
-1302
-1302
-1303
-1304
-1304
-1305
-1305
-1305
-1305
-1305
-1305
-1304
-1304
-1304
-1305
-1305
-1305
-1305
-1305
-1304
-1303
-1303
-1303
-1303
-1303
-1303
-1304
-1304
-1304
-1303
-1302
-1301
-1300
-1301
-1301
-1301
-1301
-1302
-1301
-1301
-1300
-1299
-1300
-1300
-1300
-1301
-1301
-1301
-1301
-1301
-1301
-1300
-1300
-1301
-1301
-1302
-1303
-1303
-1303
-1303
-1302
-1302
-1302
-1303
-1304
-1304
-1305
-1305
-1305
-1305
-1305
-1305
-1306
-1306
-1307
-1308
-1308
-1308
-1308
-1307
-1307
-1308
-1308
-1308
-1309
-1310
-1310
-1310
-1310
-1310
-1309
-1309
-1310
-1310
-1311
-1312
-1312
-1312
-1312
-1312
-1312
-1312
-1312
-1312
-1312
-1313
-1313
-1313
-1313
-1313
-1313
-1313
-1314
-1314
-1315
-1315
-1315
-1315
-1314
-1314
-1313
-1313
-1314
-1314
-1314
-1314
-1315
-1315
-1315
-1314
-1313
-1314
-1314
-1315
-1316
-1316
-1316
-1316
-1315
-1315
-1314
-1314
-1315
-1315
-1315
-1316
-1316
-1316
-1316
-1316
-1315
-1315
-1315
-1315
-1316
-1316
-1317
-1317
-1317
-1316
-1316
-1316
-1315
-1315
-1316
-1317
-1317
-1317
-1316
-1316
-1316
-1315
-1315
-1317
-1317
-1317
-1316
-1316
-1315
-1315
-1315
-1315
-1315
-1316
-1317
-1317
-1317
-1316
-1315
-1314
-1314
-1313
-1312
-1312
-1311
-1311
-1311
-1310
-1307
-1305
-1304
-1304
-1304
-1305
-1305
-1305
-1304
-1303
-1300
-1295
-1291
-1289
-1289
-1289
-1292
-1295
-1298
-1300
-1301
-1302
-1303
-1304
-1306
-1307
-1308
-1309
-1310
-1312
-1314
-1315
-1317
-1318
-1319
-1320
-1321
-1322
-1322
-1322
-1322
-1321
-1321
-1322
-1322
-1323
-1323
-1324
-1324
-1324
-1324
-1323
-1322
-1322
-1322
-1323
-1323
-1324
-1324
-1324
-1326
-1329
-1333
-1340
-1347
-1354
-1361
-1366
-1366
-1360
-1346
-1326
-1301
-1263
-1212
-1153
-1090
-1028
-969
-914
-861
-815
-777
-742
-714
-694
-696
-729
-777
-832
-905
-988
-1075
-1161
-1242
-1307
-1332
-1340
-1347
-1348
-1343
-1336
-1329
-1323
-1315
-1307
-1302
-1299
-1295
-1294
-1293
-1292
-1292
-1293
-1293
-1295
-1295
-1296
-1295
-1295
-1294
-1293
-1292
-1291
-1291
-1290
-1290
-1291
-1290
-1288
-1288
-1287
-1285
-1285
-1285
-1285
-1284
-1284
-1282
-1281
-1280
-1278
-1277
-1276
-1276
-1276
-1275
-1274
-1273
-1271
-1269
-1268
-1267
-1265
-1263
-1263
-1261
-1260
-1258
-1257
-1256
-1254
-1252
-1251
-1250
-1248
-1247
-1245
-1243
-1242
-1239
-1236
-1234
-1232
-1230
-1228
-1226
-1224
-1221
-1218
-1215
-1211
-1208
-1205
-1203
-1201
-1198
-1195
-1192
-1188
-1185
-1181
-1179
-1177
-1175
-1172
-1170
-1168
-1166
-1163
-1160
-1159
-1158
-1157
-1156
-1155
-1154
-1153
-1153
-1153
-1152
-1151
-1152
-1154
-1157
-1159
-1162
-1166
-1169
-1172
-1177
-1182
-1187
-1193
-1199
-1205
-1210
-1216
-1222
-1226
-1231
-1236
-1241
-1246
-1251
-1255
-1260
-1264
-1267
-1270
-1273
-1275
-1278
-1280
-1283
-1285
-1287
-1288
-1289
-1290
-1290
-1291
-1292
-1294
-1295
-1296
-1297
-1297
-1297
-1297
-1297
-1297
-1297
-1297
-1298
-1298
-1298
-1298
-1298
-1298
-1297
-1297
-1297
-1297
-1297
-1298
-1298
-1298
-1297
-1296
-1296
-1295
-1295
-1296
-1296
-1296
-1296
-1296
-1295
-1294
-1294
-1294
-1294
-1295
-1294
-1295
-1295
-1294
-1294
-1294
-1294
-1294
-1294
-1295
-1295
-1296
-1296
-1296
-1296
-1296
-1296
-1296
-1296
-1297
-1298
-1298
-1298
-1299
-1299
-1299
-1299
-1299
-1300
-1301
-1301
-1302
-1302
-1302
-1302
-1302
-1302
-1303
-1303
-1304
-1304
-1305
-1305
-1305
-1305
-1305
-1305
-1306
-1306
-1307
-1307
-1308
-1309
-1309
-1308
-1308
-1308
-1309
-1309
-1310
-1310
-1311
-1310
-1311
-1310
-1310
-1310
-1310
-1311
-1311
-1312
-1312
-1312
-1312
-1312
-1311
-1311
-1311
-1312
-1313
-1313
-1314
-1314
-1313
-1313
-1313
-1313
-1312
-1313
-1314
-1314
-1314
-1315
-1314
-1314
-1314
-1313
-1313
-1314
-1315
-1314
-1315
-1315
-1315
-1315
-1315
-1314
-1314
-1315
-1315
-1316
-1316
-1316
-1316
-1316
-1316
-1315
-1315
-1316
-1317
-1317
-1317
-1317
-1316
-1315
-1314
-1314
-1313
-1313
-1313
-1313
-1312
-1312
-1312
-1310
-1308
-1306
-1305
-1305
-1305
-1306
-1306
-1305
-1305
-1303
-1301
-1298
-1294
-1292
-1292
-1291
-1293
-1296
-1297
-1299
-1301
-1303
-1304
-1307
-1308
-1310
-1310
-1311
-1312
-1314
-1315
-1317
-1319
-1320
-1322
-1323
-1324
-1324
-1324
-1324
-1324
-1324
-1325
-1326
-1326
-1327
-1327
-1327
-1327
-1327
-1327
-1326
-1327
-1327
-1327
-1327
-1328
-1328
-1328
-1328
-1329
-1332
-1336
-1343
-1351
-1358
-1365
-1371
-1373
-1369
-1359
-1341
-1320
-1287
-1242
-1185
-1122
-1057
-995
-936
-879
-828
-785
-747
-715
-691
-682
-701
-740
-790
-856
-940
-1030
-1121
-1208
-1287
-1328
-1339
-1345
-1347
-1343
-1339
-1333
-1328
-1321
-1313
-1307
-1303
-1300
-1297
-1296
-1296
-1297
-1298
-1299
-1300
-1300
-1299
-1299
-1298
-1297
-1297
-1297
-1298
-1297
-1297
-1296
-1296
-1295
-1293
-1293
-1292
-1292
-1292
-1292
-1290
-1289
-1288
-1287
-1286
-1285
-1284
-1283
-1283
-1282
-1281
-1280
-1279
-1277
-1276
-1274
-1274
-1273
-1272
-1271
-1270
-1268
-1266
-1264
-1263
-1261
-1260
-1259
-1257
-1256
-1255
-1253
-1250
-1248
-1246
-1243
-1242
-1240
-1238
-1236
-1234
-1231
-1229
-1225
-1222
-1218
-1216
-1214
-1211
-1208
-1205
-1202
-1198
-1195
-1191
-1189
-1186
-1183
-1181
-1179
-1177
-1174
-1172
-1169
-1166
-1164
-1163
-1162
-1160
-1159
-1158
-1157
-1156
-1155
-1154
-1154
-1155
-1156
-1158
-1161
-1163
-1166
-1169
-1173
-1177
-1181
-1187
-1193
-1199
-1205
-1211
-1217
-1222
-1228
-1232
-1238
-1244
-1249
-1255
-1259
-1264
-1268
-1271
-1274
-1277
-1280
-1283
-1286
-1288
-1291
-1293
-1294
-1295
-1296
-1297
-1298
-1299
-1300
-1302
-1303
-1303
-1303
-1303
-1303
-1303
-1303
-1304
-1304
-1305
-1305
-1305
-1305
-1304
-1303
-1303
-1303
-1303
-1303
-1304
-1304
-1304
-1304
-1303
-1302
-1301
-1302
-1302
-1302
-1302
-1302
-1302
-1302
-1300
-1300
-1300
-1299
-1300
-1300
-1300
-1301
-1300
-1301
-1300
-1299
-1300
-1300
-1300
-1301
-1301
-1302
-1302
-1302
-1302
-1302
-1301
-1302
-1302
-1303
-1304
-1305
-1305
-1305
-1305
-1304
-1305
-1305
-1306
-1307
-1307
-1307
-1308
-1308
-1308
-1308
-1308
-1308
-1309
-1310
-1310
-1311
-1311
-1311
-1311
-1311
-1311
-1311
-1312
-1313
-1313
-1313
-1313
-1314
-1313
-1313
-1313
-1314
-1315
-1314
-1315
-1315
-1316
-1315
-1315
-1315
-1315
-1315
-1316
-1317
-1317
-1317
-1317
-1317
-1317
-1317
-1316
-1317
-1317
-1318
-1318
-1319
-1318
-1318
-1318
-1317
-1317
-1317
-1318
-1318
-1319
-1319
-1319
-1318
-1318
-1317
-1318
-1318
-1319
-1319
-1319
-1319
-1319
-1319
-1319
-1318
-1318
-1319
-1319
-1319
-1320
-1320
-1320
-1319
-1319
-1319
-1319
-1320
-1320
-1321
-1321
-1321
-1320
-1320
-1320
-1320
-1320
-1320
-1320
-1321
-1321
-1321
-1321
-1321
-1320
-1319
-1319
-1318
-1318
-1317
-1317
-1316
-1315
-1315
-1314
-1312
-1310
-1309
-1309
-1309
-1309
-1309
-1309
-1308
-1307
-1306
-1303
-1301
-1298
-1296
-1296
-1296
-1298
-1299
-1301
-1304
-1306
-1308
-1309
-1311
-1312
-1313
-1314
-1314
-1315
-1317
-1319
-1321
-1323
-1325
-1326
-1326
-1326
-1326
-1326
-1326
-1327
-1328
-1328
-1329
-1329
-1329
-1329
-1329
-1328
-1329
-1329
-1329
-1329
-1330
-1330
-1330
-1331
-1330
-1330
-1331
-1334
-1337
-1343
-1351
-1359
-1367
-1373
-1377
-1377
-1369
-1355
-1335
-1308
-1268
-1214
-1151
-1084
-1018
-956
-896
-838
-788
-748
-713
-684
-669
-678
-716
-766
-829
-909
-1001
-1092
-1179
-1260
-1320
-1340
-1346
-1346
-1341
-1337
-1331
-1326
-1319
-1312
-1307
-1303
-1299
-1297
-1297
-1298
-1300
-1300
-1301
-1301
-1301
-1300
-1299
-1299
-1298
-1299
-1298
-1298
-1298
-1297
-1297
-1295
-1294
-1294
-1293
-1292
-1292
-1292
-1291
-1290
-1289
-1288
-1286
-1285
-1284
-1283
-1283
-1282
-1281
-1280
-1279
-1278
-1275
-1274
-1273
-1272
-1271
-1270
-1268
-1268
-1266
-1264
-1262
-1260
-1258
-1257
-1256
-1255
-1253
-1252
-1250
-1247
-1245
-1243
-1241
-1240
-1238
-1236
-1234
-1231
-1229
-1225
-1223
-1220
-1217
-1215
-1212
-1209
-1206
-1203
-1199
-1196
-1192
-1189
-1186
-1183
-1180
-1177
-1175
-1173
-1171
-1168
-1165
-1163
-1160
-1159
-1158
-1156
-1155
-1153
-1151
-1149
-1147
-1147
-1146
-1147
-1149
-1151
-1152
-1154
-1157
-1160
-1163
-1167
-1171
-1176
-1182
-1188
-1193
-1199
-1204
-1210
-1215
-1221
-1227
-1234
-1239
-1244
-1249
-1253
-1257
-1261
-1264
-1267
-1270
-1274
-1277
-1280
-1282
-1284
-1285
-1286
-1288
-1289
-1291
-1292
-1293
-1294
-1295
-1296
-1295
-1295
-1295
-1295
-1296
-1297
-1297
-1297
-1297
-1296
-1296
-1297
-1296
-1296
-1296
-1296
-1296
-1296
-1296
-1296
-1296
-1295
-1293
-1294
-1293
-1293
-1294
-1295
-1294
-1294
-1295
-1294
-1293
-1293
-1293
-1293
-1293
-1293
-1292
-1293
-1292
-1292
-1292
-1292
-1293
-1293
-1293
-1294
-1294
-1294
-1294
-1294
-1294
-1294
-1295
-1295
-1296
-1297
-1297
-1297
-1296
-1296
-1296
-1296
-1297
-1298
-1299
-1299
-1299
-1300
-1300
-1299
-1299
-1299
-1299
-1300
-1300
-1301
-1302
-1302
-1302
-1301
-1301
-1303
-1303
-1303
-1304
-1304
-1304
-1304
-1303
-1303
-1304
-1304
-1304
-1305
-1305
-1306
-1306
-1307
-1306
-1306
-1306
-1306
-1307
-1307
-1307
-1307
-1307
-1307
-1307
-1307
-1307
-1307
-1307
-1308
-1308
-1308
-1308
-1308
-1308
-1307
-1307
-1307
-1308
-1308
-1309
-1309
-1309
-1309
-1309
-1308
-1308
-1309
-1308
-1309
-1309
-1310
-1309
-1310
-1309
-1307
-1308
-1309
-1309
-1309
-1310
-1310
-1309
-1310
-1309
-1309
-1309
-1309
-1310
-1310
-1310
-1310
-1310
-1310
-1310
-1309
-1309
-1308
-1309
-1308
-1308
-1306
-1306
-1306
-1305
-1305
-1305
-1303
-1301
-1300
-1299
-1299
-1299
-1299
-1299
-1298
-1298
-1297
-1295
-1291
-1288
-1286
-1284
-1283
-1284
-1287
-1290
-1293
-1295
-1297
-1298
-1299
-1301
-1301
-1302
-1302
-1303
-1305
-1308
-1310
-1312
-1313
-1314
-1315
-1314
-1314
-1315
-1316
-1317
-1317
-1317
-1317
-1318
-1317
-1317
-1317
-1317
-1318
-1318
-1318
-1319
-1318
-1318
-1318
-1318
-1317
-1317
-1318
-1320
-1323
-1328
-1334
-1342
-1348
-1353
-1357
-1357
-1351
-1339
-1320
-1295
-1258
-1208
-1150
-1089
-1027
-971
-918
-867
-824
-788
-753
-726
-705
-701
-727
-770
-825
-897
-980
-1066
-1154
-1236
-1299
-1322
-1331
-1339
-1346
-1345
-1339
-1332
-1326
-1318
-1309
-1301
-1297
-1293
-1291
-1290
-1289
-1290
-1290
-1290
-1289
-1289
-1289
-1288
-1289
-1289
-1289
-1288
-1288
-1287
-1286
-1285
-1284
-1283
-1283
-1283
-1283
-1282
-1281
-1281
-1279
-1277
-1277
-1276
-1275
-1275
-1274
-1274
-1273
-1271
-1269
-1268
-1267
-1267
-1266
-1265
-1264
-1263
-1262
-1260
-1258
-1257
-1255
-1254
-1253
-1252
-1251
-1250
-1248
-1246
-1243
-1241
-1239
-1238
-1237
-1235
-1233
-1231
-1229
-1227
-1224
-1221
-1219
-1217
-1215
-1212
-1210
-1207
-1205
-1201
-1197
-1194
-1191
-1189
-1187
-1184
-1182
-1179
-1177
-1174
-1171
-1169
-1167
-1165
-1164
-1162
-1161
-1160
-1158
-1156
-1155
-1154
-1153
-1153
-1153
-1154
-1154
-1155
-1157
-1159
-1161
-1164
-1167
-1172
-1176
-1181
-1186
-1191
-1197
-1202
-1207
-1212
-1217
-1222
-1229
-1234
-1239
-1244
-1247
-1251
-1255
-1259
-1263
-1267
-1270
-1273
-1276
-1278
-1279
-1281
-1282
-1284
-1285
-1287
-1289
-1290
-1290
-1291
-1292
-1292
-1292
-1292
-1293
-1293
-1293
-1294
-1294
-1294
-1294
-1294
-1293
-1293
-1293
-1294
-1294
-1294
-1294
-1294
-1293
-1293
-1292
-1292
-1292
-1292
-1292
-1292
-1292
-1292
-1292
-1291
-1290
-1290
-1290
-1290
-1290
-1291
-1291
-1291
-1291
-1290
-1290
-1290
-1290
-1290
-1291
-1292
-1292
-1292
-1292
-1292
-1291
-1291
-1292
-1292
-1293
-1294
-1295
-1294
-1294
-1294
-1294
-1294
-1295
-1296
-1296
-1297
-1297
-1298
-1298
-1298
-1298
-1298
-1299
-1300
-1300
-1301
-1302
-1302
-1302
-1302
-1302
-1302
-1302
-1303
-1304
-1304
-1304
-1305
-1305
-1304
-1304
-1304
-1305
-1306
-1306
-1307
-1307
-1307
-1307
-1307
-1306
-1307
-1307
-1308
-1308
-1309
-1309
-1309
-1309
-1309
-1309
-1309
-1309
-1310
-1310
-1310
-1310
-1311
-1310
-1309
-1309
-1309
-1310
-1310
-1311
-1311
-1312
-1311
-1311
-1311
-1310
-1310
-1311
-1311
-1312
-1312
-1312
-1312
-1312
-1311
-1311
-1311
-1312
-1312
-1312
-1313
-1313
-1313
-1312
-1312
-1312
-1312
-1312
-1312
-1312
-1311
-1312
-1311
-1309
-1307
-1306
-1306
-1306
-1306
-1305
-1303
-1302
-1301
-1301
-1300
-1300
-1300
-1300
-1300
-1299
-1296
-1292
-1289
-1286
-1285
-1286
-1288
-1291
-1294
-1296
-1299
-1300
-1302
-1303
-1303
-1303
-1305
-1306
-1308
-1310
-1313
-1314
-1315
-1316
-1317
-1317
-1318
-1319
-1320
-1320
-1321
-1321
-1321
-1321
-1321
-1321
-1321
-1321
-1322
-1322
-1322
-1323
-1322
-1322
-1321
-1322
-1323
-1324
-1323
-1324
-1327
-1331
-1335
-1341
-1350
-1357
-1364
-1369
-1371
-1365
-1352
-1332
-1306
-1268
-1215
-1154
-1087
-1021
-959
-899
-841
-789
-745
-708
-677
-656
-660
-693
-742
-801
-879
-971
-1063
-1152
-1235
-1303
-1329
-1337
-1341
-1338
-1332
-1326
-1320
-1314
-1305
-1300
-1295
-1293
-1291
-1290
-1291
-1292
-1292
-1292
-1292
-1292
-1293
-1293
-1293
-1293
-1293
-1293
-1292
-1291
-1290
-1289
-1289
-1289
-1289
-1288
-1288
-1287
-1286
-1285
-1284
-1283
-1282
-1282
-1281
-1280
-1280
-1278
-1277
-1276
-1275
-1273
-1273
-1272
-1271
-1270
-1269
-1267
-1266
-1264
-1262
-1261
-1260
-1259
-1258
-1257
-1255
-1253
-1251
-1249
-1247
-1246
-1244
-1242
-1241
-1239
-1237
-1235
-1232
-1229
-1227
-1224
-1222
-1220
-1218
-1215
-1212
-1209
-1205
-1201
-1199
-1195
-1192
-1190
-1187
-1184
-1181
-1178
-1175
-1172
-1169
-1167
-1165
-1163
-1161
-1159
-1157
-1156
-1154
-1152
-1150
-1150
-1149
-1149
-1149
-1149
-1148
-1149
-1150
-1152
-1154
-1157
-1161
-1165
-1170
-1175
-1180
-1185
-1190
-1196
-1201
-1207
-1213
-1219
-1226
-1232
-1237
-1242
-1246
-1251
-1255
-1259
-1264
-1267
-1271
-1273
-1277
-1279
-1281
-1283
-1284
-1287
-1289
-1290
-1292
-1293
-1294
-1294
-1295
-1295
-1295
-1296
-1297
-1298
-1298
-1298
-1298
-1298
-1298
-1297
-1297
-1298
-1298
-1298
-1298
-1298
-1298
-1298
-1297
-1297
-1296
-1296
-1297
-1297
-1297
-1297
-1296
-1295
-1295
-1295
-1294
-1294
-1295
-1295
-1295
-1295
-1295
-1295
-1294
-1294
-1294
-1295
-1295
-1295
-1295
-1296
-1296
-1296
-1295
-1295
-1295
-1295
-1296
-1297
-1297
-1298
-1298
-1298
-1298
-1298
-1298
-1299
-1300
-1300
-1300
-1301
-1301
-1301
-1300
-1301
-1301
-1302
-1303
-1304
-1304
-1304
-1304
-1304
-1304
-1304
-1304
-1305
-1306
-1306
-1307
-1307
-1306
-1307
-1307
-1306
-1307
-1307
-1308
-1308
-1309
-1309
-1309
-1309
-1308
-1308
-1308
-1309
-1310
-1311
-1310
-1311
-1311
-1310
-1310
-1310
-1310
-1311
-1311
-1312
-1312
-1312
-1312
-1312
-1311
-1311
-1311
-1312
-1312
-1312
-1313
-1312
-1313
-1312
-1312
-1311
-1312
-1313
-1313
-1313
-1313
-1313
-1313
-1313
-1312
-1312
-1313
-1313
-1313
-1314
-1314
-1313
-1314
-1313
-1313
-1313
-1313
-1313
-1313
-1314
-1315
-1314
-1314
-1314
-1314
-1313
-1312
-1312
-1312
-1312
-1312
-1311
-1309
-1308
-1307
-1307
-1305
-1303
-1303
-1303
-1302
-1302
-1303
-1302
-1301
-1300
-1300
-1297
-1294
-1291
-1290
-1289
-1289
-1290
-1292
-1295
-1297
-1299
-1301
-1303
-1304
-1306
-1306
-1306
-1307
-1308
-1311
-1313
-1315
-1317
-1318
-1320
-1320
-1319
-1319
-1320
-1321
-1322
-1322
-1323
-1323
-1323
-1323
-1323
-1322
-1323
-1323
-1323
-1324
-1324
-1324
-1324
-1324
-1324
-1324
-1323
-1325
-1328
-1331
-1337
-1344
-1353
-1360
-1366
-1370
-1371
-1364
-1350
-1330
-1304
-1263
-1209
-1146
-1079
-1013
-952
-892
-835
-785
-743
-707
-678
-661
-670
-708
-759
-824
-906
-999
-1090
-1177
-1259
-1316
-1335
-1341
-1341
-1337
-1332
-1326
-1321
-1314
-1306
-1300
-1295
-1292
-1291
-1291
-1292
-1293
-1294
-1294
-1294
-1294
-1293
-1293
-1293
-1293
-1293
-1293
-1293
-1292
-1291
-1291
-1290
-1289
-1288
-1288
-1288
-1287
-1287
-1286
-1285
-1284
-1282
-1281
-1280
-1280
-1280
-1279
-1278
-1277
-1275
-1274
-1273
-1272
-1270
-1270
-1269
-1268
-1267
-1266
-1264
-1262
-1260
-1258
-1257
-1256
-1255
-1254
-1252
-1250
-1248
-1246
-1244
-1242
-1240
-1238
-1237
-1235
-1233
-1230
-1227
-1224
-1221
-1218
-1216
-1214
-1211
-1208
-1206
-1203
-1199
-1196
-1192
-1189
-1185
-1183
-1180
-1178
-1175
-1173
-1170
-1167
-1165
-1162
-1161
-1159
-1158
-1156
-1155
-1153
-1152
-1150
-1149
-1148
-1148
-1149
-1150
-1150
-1152
-1154
-1156
-1159
-1162
-1166
-1170
-1175
-1181
-1187
-1192
-1198
-1203
-1208
-1214
-1220
-1226
-1231
-1237
-1242
-1247
-1251
-1255
-1258
-1262
-1265
-1269
-1272
-1275
-1277
-1280
-1282
-1283
-1285
-1286
-1287
-1289
-1290
-1291
-1292
-1293
-1294
-1293
-1293
-1293
-1294
-1295
-1295
-1296
-1296
-1296
-1296
-1295
-1295
-1295
-1295
-1294
-1295
-1295
-1295
-1294
-1294
-1293
-1293
-1292
-1292
-1292
-1292
-1293
-1293
-1293
-1292
-1292
-1291
-1291
-1290
-1290
-1291
-1290
-1290
-1291
-1291
-1291
-1290
-1291
-1291
-1291
-1292
-1293
-1293
-1293
-1293
-1292
-1292
-1291
-1292
-1293
-1294
-1294
-1294
-1294
-1294
-1294
-1294
-1295
-1295
-1295
-1296
-1296
-1297
-1297
-1297
-1297
-1297
-1298
-1298
-1298
-1298
-1299
-1300
-1300
-1300
-1300
-1300
-1300
-1300
-1301
-1302
-1302
-1303
-1303
-1303
-1302
-1301
-1301
-1302
-1302
-1304
-1304
-1304
-1305
-1304
-1303
-1304
-1304
-1304
-1305
-1305
-1305
-1306
-1306
-1306
-1306
-1305
-1304
-1305
-1306
-1307
-1306
-1306
-1307
-1307
-1306
-1306
-1306
-1306
-1306
-1307
-1307
-1307
-1307
-1307
-1307
-1307
-1307
-1307
-1307
-1308
-1308
-1308
-1308
-1308
-1307
-1307
-1307
-1307
-1308
-1308
-1307
-1306
-1306
-1305
-1303
-1301
-1300
-1300
-1299
-1299
-1298
-1298
-1298
-1297
-1297
-1297
-1298
-1297
-1296
-1292
-1289
-1285
-1281
-1277
-1275
-1277
-1279
-1284
-1287
-1289
-1290
-1291
-1292
-1292
-1293
-1295
-1297
-1300
-1302
-1304
-1306
-1308
-1310
-1311
-1311
-1312
-1312
-1312
-1313
-1314
-1315
-1315
-1315
-1315
-1315
-1315
-1315
-1315
-1316
-1317
-1316
-1316
-1316
-1316
-1316
-1316
-1315
-1317
-1317
-1318
-1320
-1324
-1330
-1336
-1344
-1351
-1357
-1361
-1358
-1348
-1332
-1310
-1279
-1234
-1178
-1116
-1052
-991
-934
-878
-827
-786
-749
-716
-690
-676
-693
-734
-787
-853
-936
-1024
-1115
-1200
-1278
-1317
-1328
-1335
-1342
-1342
-1336
-1330
-1323
-1316
-1307
-1300
-1295
-1291
-1289
-1288
-1287
-1288
-1288
-1287
-1287
-1287
-1287
-1287
-1288
-1288
-1287
-1286
-1285
-1284
-1284
-1283
-1283
-1283
-1282
-1281
-1281
-1280
-1280
-1279
-1277
-1276
-1275
-1274
-1274
-1274
-1272
-1271
-1270
-1269
-1267
-1266
-1265
-1264
-1263
-1262
-1261
-1261
-1259
-1256
-1255
-1254
-1253
-1252
-1251
-1250
-1249
-1247
-1244
-1242
-1240
-1239
-1237
-1236
-1234
-1232
-1230
-1227
-1224
-1222
-1220
-1218
-1216
-1213
-1211
-1208
-1205
-1202
-1200
-1196
-1193
-1191
-1189
-1186
-1183
-1180
-1178
-1175
-1172
-1169
-1167
-1165
-1163
-1161
-1160
-1158
-1157
-1156
-1154
-1152
-1151
-1150
-1150
-1150
-1150
-1151
-1152
-1153
-1154
-1156
-1159
-1162
-1166
-1171
-1175
-1180
-1185
-1190
-1195
-1200
-1205
-1211
-1216
-1222
-1227
-1232
-1237
-1240
-1244
-1248
-1252
-1256
-1260
-1263
-1266
-1269
-1271
-1273
-1274
-1276
-1277
-1279
-1281
-1282
-1284
-1285
-1286
-1286
-1286
-1286
-1286
-1287
-1288
-1289
-1289
-1289
-1289
-1289
-1289
-1289
-1288
-1288
-1289
-1289
-1289
-1289
-1289
-1288
-1287
-1287
-1287
-1286
-1286
-1286
-1287
-1287
-1287
-1286
-1286
-1285
-1284
-1284
-1285
-1285
-1285
-1285
-1285
-1285
-1284
-1284
-1284
-1284
-1284
-1285
-1285
-1285
-1285
-1285
-1285
-1284
-1284
-1284
-1285
-1286
-1287
-1287
-1286
-1287
-1287
-1287
-1288
-1288
-1289
-1289
-1290
-1290
-1290
-1290
-1290
-1290
-1291
-1291
-1292
-1293
-1293
-1293
-1294
-1294
-1294
-1294
-1294
-1294
-1295
-1296
-1296
-1296
-1296
-1297
-1297
-1296
-1296
-1297
-1298
-1298
-1298
-1299
-1299
-1298
-1299
-1299
-1299
-1299
-1299
-1300
-1300
-1300
-1300
-1300
-1300
-1299
-1300
-1300
-1301
-1302
-1302
-1302
-1302
-1301
-1301
-1301
-1301
-1301
-1301
-1302
-1302
-1302
-1303
-1302
-1302
-1302
-1302
-1302
-1303
-1303
-1303
-1303
-1302
-1300
-1299
-1298
-1297
-1297
-1296
-1294
-1292
-1291
-1290
-1290
-1290
-1291
-1292
-1291
-1291
-1289
-1285
-1280
-1276
-1273
-1270
-1270
-1273
-1275
-1279
-1281
-1283
-1285
-1286
-1287
-1288
-1290
-1292
-1295
-1298
-1301
-1303
-1304
-1305
-1307
-1308
-1309
-1310
-1311
-1312
-1312
-1313
-1313
-1313
-1313
-1313
-1314
-1314
-1315
-1315
-1316
-1316
-1316
-1316
-1315
-1315
-1315
-1316
-1316
-1316
-1318
-1320
-1324
-1329
-1335
-1343
-1350
-1357
-1361
-1361
-1353
-1338
-1317
-1288
-1246
-1192
-1131
-1067
-1005
-948
-891
-839
-796
-756
-721
-695
-679
-688
-721
-769
-829
-910
-997
-1089
-1177
-1260
-1311
-1326
-1333
-1340
-1341
-1336
-1330
-1323
-1317
-1309
-1302
-1297
-1294
-1291
-1289
-1289
-1290
-1290
-1290
-1289
-1289
-1290
-1290
-1290
-1290
-1290
-1289
-1288
-1287
-1287
-1286
-1286
-1286
-1286
-1285
-1285
-1283
-1282
-1281
-1281
-1280
-1279
-1279
-1278
-1277
-1276
-1275
-1274
-1272
-1271
-1270
-1270
-1269
-1268
-1268
-1267
-1266
-1264
-1262
-1260
-1259
-1259
-1258
-1256
-1255
-1254
-1252
-1250
-1248
-1246
-1244
-1243
-1242
-1240
-1238
-1236
-1234
-1231
-1228
-1226
-1224
-1222
-1220
-1217
-1215
-1212
-1209
-1205
-1202
-1199
-1196
-1194
-1191
-1189
-1186
-1184
-1181
-1177
-1175
-1172
-1171
-1169
-1168
-1167
-1165
-1163
-1161
-1159
-1157
-1156
-1155
-1155
-1155
-1156
-1157
-1157
-1158
-1160
-1162
-1165
-1169
-1173
-1177
-1183
-1187
-1193
-1198
-1203
-1207
-1213
-1219
-1225
-1230
-1236
-1240
-1246
-1250
-1253
-1257
-1261
-1265
-1269
-1272
-1276
-1278
-1280
-1282
-1283
-1285
-1286
-1288
-1290
-1292
-1293
-1294
-1294
-1295
-1295
-1295
-1295
-1296
-1297
-1298
-1298
-1298
-1298
-1298
-1297
-1297
-1297
-1297
-1297
-1298
-1298
-1298
-1297
-1297
-1296
-1296
-1296
-1296
-1296
-1296
-1297
-1296
-1296
-1295
-1295
-1294
-1293
-1293
-1294
-1295
-1295
-1295
-1294
-1294
-1293
-1293
-1294
-1294
-1294
-1295
-1295
-1295
-1295
-1295
-1295
-1295
-1295
-1296
-1297
-1297
-1298
-1298
-1298
-1298
-1298
-1298
-1299
-1300
-1300
-1301
-1302
-1302
-1302
-1302
-1302
-1302
-1302
-1304
-1304
-1305
-1306
-1306
-1306
-1306
-1305
-1305
-1306
-1307
-1307
-1308
-1309
-1308
-1309
-1308
-1308
-1308
-1309
-1309
-1310
-1311
-1311
-1311
-1311
-1310
-1310
-1310
-1311
-1312
-1312
-1312
-1312
-1313
-1312
-1312
-1311
-1312
-1312
-1312
-1313
-1314
-1314
-1313
-1313
-1313
-1312
-1312
-1313
-1313
-1314
-1315
-1315
-1315
-1314
-1313
-1314
-1314
-1313
-1314
-1315
-1315
-1315
-1315
-1315
-1315
-1314
-1314
-1314
-1315
-1315
-1315
-1316
-1316
-1315
-1315
-1315
-1315
-1315
-1315
-1316
-1316
-1316
-1315
-1314
-1312
-1311
-1310
-1309
-1309
-1309
-1307
-1304
-1303
-1302
-1302
-1302
-1303
-1304
-1304
-1304
-1301
-1298
-1293
-1288
-1284
-1282
-1282
-1285
-1288
-1291
-1293
-1296
-1297
-1298
-1299
-1300
-1302
-1305
-1308
-1310
-1312
-1314
-1315
-1316
-1318
-1319
-1320
-1322
-1323
-1323
-1324
-1324
-1324
-1324
-1324
-1324
-1324
-1325
-1325
-1326
-1326
-1326
-1327
-1326
-1325
-1325
-1326
-1327
-1327
-1327
-1330
-1332
-1335
-1340
-1347
-1356
-1364
-1370
-1376
-1376
-1366
-1350
-1330
-1302
-1258
-1202
-1139
-1073
-1008
-947
-887
-828
-779
-737
-702
-674
-662
-678
-720
-773
-840
-924
-1017
-1106
-1192
-1271
-1324
-1340
-1345
-1346
-1341
-1334
-1329
-1323
-1315
-1307
-1303
-1300
-1297
-1296
-1296
-1297
-1297
-1297
-1297
-1297
-1298
-1298
-1299
-1299
-1298
-1299
-1297
-1296
-1295
-1295
-1294
-1294
-1293
-1293
-1293
-1292
-1291
-1289
-1288
-1287
-1287
-1287
-1286
-1285
-1284
-1284
-1282
-1281
-1279
-1278
-1277
-1277
-1276
-1275
-1274
-1273
-1271
-1269
-1267
-1266
-1265
-1264
-1263
-1261
-1260
-1259
-1257
-1255
-1253
-1251
-1249
-1248
-1246
-1244
-1242
-1240
-1237
-1235
-1232
-1229
-1227
-1225
-1222
-1220
-1217
-1214
-1210
-1206
-1203
-1200
-1197
-1194
-1191
-1189
-1186
-1183
-1179
-1177
-1173
-1171
-1170
-1168
-1166
-1164
-1162
-1160
-1158
-1156
-1155
-1154
-1153
-1153
-1152
-1152
-1152
-1153
-1154
-1156
-1158
-1161
-1164
-1169
-1174
-1179
-1183
-1188
-1194
-1198
-1204
-1210
-1216
-1222
-1227
-1233
-1238
-1243
-1248
-1252
-1256
-1260
-1264
-1268
-1272
-1275
-1278
-1280
-1281
-1283
-1285
-1287
-1288
-1290
-1292
-1293
-1294
-1295
-1295
-1295
-1295
-1296
-1296
-1297
-1297
-1298
-1297
-1297
-1297
-1297
-1296
-1297
-1297
-1297
-1297
-1298
-1297
-1297
-1296
-1296
-1296
-1295
-1296
-1295
-1295
-1295
-1295
-1294
-1293
-1293
-1293
-1294
-1294
-1293
-1293
-1293
-1294
-1293
-1292
-1292
-1291
-1291
-1292
-1292
-1293
-1293
-1293
-1292
-1292
-1292
-1292
-1292
-1293
-1294
-1294
-1295
-1294
-1294
-1294
-1294
-1294
-1294
-1295
-1296
-1297
-1297
-1297
-1297
-1297
-1297
-1297
-1297
-1298
-1298
-1299
-1299
-1299
-1299
-1299
-1299
-1299
-1299
-1300
-1300
-1301
-1302
-1302
-1301
-1301
-1302
-1301
-1302
-1301
-1302
-1303
-1302
-1303
-1302
-1302
-1302
-1302
-1303
-1303
-1304
-1304
-1304
-1304
-1304
-1303
-1303
-1303
-1304
-1305
-1305
-1305
-1306
-1305
-1305
-1305
-1304
-1304
-1305
-1306
-1306
-1306
-1306
-1306
-1304
-1304
-1303
-1303
-1304
-1304
-1305
-1305
-1305
-1305
-1305
-1304
-1305
-1305
-1305
-1305
-1306
-1306
-1306
-1305
-1305
-1304
-1304
-1305
-1305
-1306
-1306
-1306
-1305
-1304
-1303
-1301
-1300
-1300
-1299
-1299
-1298
-1295
-1293
-1292
-1291
-1290
-1291
-1293
-1293
-1293
-1292
-1289
-1285
-1280
-1276
-1272
-1270
-1271
-1273
-1277
-1279
-1281
-1283
-1284
-1285
-1286
-1288
-1290
-1293
-1296
-1299
-1301
-1302
-1303
-1305
-1306
-1306
-1308
-1309
-1309
-1310
-1310
-1309
-1310
-1310
-1310
-1310
-1311
-1311
-1312
-1313
-1313
-1313
-1312
-1311
-1311
-1312
-1312
-1312
-1313
-1313
-1315
-1317
-1320
-1325
-1333
-1340
-1347
-1354
-1357
-1354
-1343
-1326
-1304
-1271
-1226
-1168
-1106
-1043
-983
-926
-870
-820
-778
-739
-707
-681
-671
-693
-737
-789
-857
-940
-1027
-1117
-1202
-1278
-1315
-1325
-1332
-1338
-1335
-1329
-1323
-1316
-1308
-1300
-1295
-1290
-1286
-1285
-1283
-1282
-1282
-1282
-1283
-1283
-1284
-1284
-1284
-1283
-1283
-1282
-1281
-1280
-1280
-1279
-1279
-1279
-1279
-1279
-1277
-1276
-1275
-1274
-1273
-1273
-1272
-1272
-1271
-1269
-1268
-1268
-1267
-1265
-1264
-1263
-1263
-1262
-1261
-1260
-1259
-1258
-1256
-1254
-1254
-1252
-1250
-1250
-1248
-1247
-1246
-1243
-1241
-1239
-1237
-1235
-1234
-1233
-1231
-1230
-1227
-1225
-1222
-1220
-1218
-1215
-1213
-1211
-1209
-1206
-1203
-1200
-1197
-1193
-1190
-1188
-1186
-1184
-1181
-1178
-1175
-1172
-1168
-1166
-1164
-1162
-1160
-1159
-1157
-1155
-1153
-1152
-1150
-1148
-1147
-1146
-1146
-1146
-1146
-1147
-1147
-1147
-1148
-1150
-1152
-1156
-1159
-1163
-1167
-1172
-1177
-1181
-1186
-1191
-1196
-1202
-1209
-1214
-1219
-1224
-1229
-1234
-1238
-1241
-1245
-1249
-1253
-1256
-1260
-1263
-1265
-1268
-1269
-1271
-1273
-1275
-1276
-1277
-1279
-1280
-1281
-1282
-1282
-1282
-1282
-1283
-1285
-1285
-1286
-1286
-1286
-1286
-1285
-1285
-1285
-1286
-1286
-1286
-1286
-1286
-1286
-1285
-1285
-1284
-1284
-1284
-1284
-1284
-1284
-1284
-1283
-1283
-1282
-1281
-1281
-1281
-1281
-1281
-1281
-1281
-1281
-1280
-1280
-1280
-1280
-1280
-1281
-1281
-1281
-1281
-1282
-1281
-1280
-1280
-1280
-1280
-1281
-1282
-1282
-1283
-1283
-1282
-1282
-1282
-1283
-1283
-1284
-1285
-1285
-1285
-1285
-1285
-1286
-1286
-1286
-1288
-1289
-1289
-1290
-1290
-1290
-1289
-1289
-1289
-1290
-1290
-1291
-1292
-1293
-1293
-1292
-1292
-1292
-1292
-1292
-1293
-1294
-1294
-1295
-1295
-1295
-1295
-1294
-1294
-1294
-1295
-1295
-1296
-1296
-1296
-1296
-1296
-1296
-1295
-1296
-1297
-1297
-1298
-1298
-1298
-1297
-1297
-1297
-1297
-1297
-1297
-1297
-1298
-1298
-1298
-1298
-1298
-1297
-1297
-1298
-1299
-1299
-1300
-1300
-1300
-1299
-1299
-1298
-1298
-1298
-1298
-1298
-1298
-1297
-1296
-1294
-1293
-1293
-1291
-1289
-1288
-1288
-1288
-1288
-1289
-1289
-1289
-1288
-1285
-1282
-1279
-1274
-1271
-1268
-1267
-1268
-1270
-1273
-1275
-1277
-1280
-1281
-1282
-1284
-1286
-1287
-1290
-1292
-1294
-1297
-1299
-1301
-1303
-1304
-1305
-1305
-1306
-1306
-1306
-1307
-1308
-1308
-1309
-1309
-1309
-1309
-1309
-1309
-1310
-1310
-1310
-1310
-1311
-1311
-1311
-1310
-1311
-1311
-1311
-1314
-1317
-1321
-1327
-1335
-1343
-1349
-1354
-1356
-1351
-1341
-1323
-1301
-1267
-1219
-1161
-1098
-1034
-973
-917
-861
-815
-776
-738
-709
-686
-679
-701
-741
-794
-863
-948
-1037
-1129
-1214
-1286
-1316
-1325
-1331
-1337
-1335
-1329
-1323
-1317
-1311
-1303
-1296
-1291
-1287
-1285
-1284
-1284
-1285
-1286
-1286
-1285
-1285
-1285
-1284
-1284
-1285
-1285
-1284
-1283
-1283
-1282
-1282
-1280
-1280
-1279
-1279
-1279
-1278
-1277
-1277
-1276
-1274
-1273
-1272
-1272
-1272
-1271
-1271
-1269
-1268
-1267
-1265
-1264
-1263
-1262
-1261
-1260
-1259
-1259
-1257
-1255
-1254
-1252
-1250
-1249
-1248
-1247
-1246
-1244
-1242
-1241
-1238
-1236
-1234
-1232
-1231
-1229
-1228
-1226
-1223
-1220
-1217
-1214
-1212
-1209
-1207
-1204
-1202
-1199
-1196
-1193
-1189
-1186
-1183
-1180
-1178
-1176
-1174
-1171
-1168
-1166
-1163
-1161
-1159
-1158
-1157
-1156
-1155
-1153
-1152
-1151
-1149
-1149
-1150
-1150
-1151
-1153
-1156
-1158
-1160
-1164
-1167
-1171
-1176
-1181
-1187
-1192
-1198
-1203
-1209
-1214
-1219
-1224
-1230
-1234
-1239
-1244
-1249
-1253
-1257
-1260
-1263
-1266
-1269
-1272
-1275
-1277
-1279
-1281
-1283
-1284
-1284
-1286
-1287
-1289
-1290
-1291
-1291
-1292
-1292
-1292
-1293
-1293
-1293
-1294
-1295
-1295
-1295
-1295
-1295
-1294
-1294
-1293
-1294
-1294
-1294
-1294
-1294
-1294
-1294
-1293
-1293
-1292
-1291
-1292
-1293
-1292
-1292
-1292
-1291
-1291
-1290
-1290
-1290
-1290
-1290
-1291
-1291
-1291
-1290
-1289
-1289
-1289
-1290
-1291
-1291
-1291
-1291
-1292
-1292
-1291
-1291
-1291
-1292
-1293
-1293
-1294
-1294
-1294
-1294
-1294
-1294
-1295
-1296
-1296
-1297
-1298
-1298
-1299
-1298
-1298
-1299
-1299
-1300
-1300
-1302
-1302
-1302
-1302
-1302
-1303
-1302
-1302
-1303
-1304
-1304
-1305
-1305
-1305
-1305
-1305
-1305
-1305
-1306
-1306
-1307
-1307
-1307
-1308
-1307
-1307
-1307
-1308
-1308
-1308
-1309
-1310
-1309
-1309
-1309
-1308
-1308
-1309
-1309
-1309
-1310
-1311
-1310
-1310
-1310
-1309
-1309
-1310
-1310
-1311
-1311
-1311
-1311
-1311
-1311
-1310
-1311
-1311
-1311
-1311
-1312
-1312
-1312
-1312
-1312
-1312
-1312
-1312
-1312
-1312
-1313
-1313
-1313
-1313
-1313
-1312
-1312
-1312
-1312
-1313
-1313
-1314
-1314
-1314
-1313
-1312
-1313
-1313
-1313
-1313
-1313
-1312
-1311
-1310
-1308
-1306
-1306
-1305
-1303
-1301
-1300
-1301
-1301
-1301
-1302
-1301
-1301
-1299
-1296
-1292
-1288
-1285
-1282
-1280
-1281
-1284
-1287
-1289
-1291
-1294
-1295
-1297
-1299
-1300
-1301
-1304
-1306
-1308
-1311
-1313
-1314
-1316
-1317
-1318
-1319
-1319
-1320
-1321
-1321
-1322
-1322
-1323
-1323
-1323
-1323
-1322
-1322
-1323
-1324
-1324
-1324
-1324
-1324
-1324
-1324
-1324
-1324
-1326
-1330
-1332
-1337
-1346
-1355
-1362
-1368
-1373
-1373
-1366
-1351
-1331
-1306
-1265
-1211
-1148
-1081
-1015
-953
-893
-834
-784
-743
-708
-679
-664
-675
-714
-763
-826
-908
-1000
-1089
-1177
-1257
-1315
-1336
-1343
-1343
-1338
-1333
-1327
-1321
-1315
-1309
-1303
-1298
-1295
-1293
-1293
-1295
-1296
-1297
-1297
-1297
-1297
-1297
-1296
-1296
-1296
-1296
-1296
-1296
-1295
-1295
-1294
-1293
-1292
-1291
-1290
-1291
-1290
-1289
-1289
-1288
-1287
-1286
-1284
-1283
-1283
-1282
-1281
-1281
-1280
-1279
-1277
-1276
-1275
-1273
-1272
-1272
-1271
-1270
-1268
-1267
-1265
-1263
-1262
-1260
-1259
-1258
-1257
-1255
-1253
-1251
-1249
-1247
-1245
-1243
-1241
-1239
-1237
-1235
-1233
-1230
-1227
-1224
-1221
-1218
-1215
-1213
-1210
-1207
-1204
-1201
-1197
-1193
-1190
-1187
-1184
-1182
-1179
-1177
-1174
-1171
-1168
-1166
-1164
-1162
-1160
-1158
-1157
-1156
-1154
-1153
-1151
-1150
-1149
-1149
-1150
-1151
-1153
-1155
-1157
-1160
-1163
-1166
-1170
-1176
-1181
-1186
-1192
-1198
-1204
-1209
-1214
-1220
-1226
-1231
-1237
-1243
-1248
-1253
-1257
-1261
-1263
-1267
-1271
-1274
-1277
-1280
-1283
-1285
-1287
-1288
-1289
-1290
-1291
-1293
-1294
-1295
-1296
-1297
-1298
-1297
-1297
-1298
-1298
-1298
-1299
-1300
-1300
-1300
-1300
-1300
-1299
-1299
-1299
-1300
-1300
-1300
-1300
-1300
-1300
-1299
-1298
-1297
-1297
-1297
-1298
-1298
-1298
-1297
-1297
-1296
-1296
-1295
-1295
-1296
-1296
-1295
-1296
-1295
-1295
-1295
-1294
-1294
-1294
-1295
-1295
-1296
-1296
-1296
-1296
-1295
-1295
-1295
-1296
-1296
-1297
-1297
-1298
-1298
-1298
-1298
-1297
-1297
-1298
-1299
-1299
-1300
-1300
-1300
-1300
-1300
-1300
-1300
-1300
-1301
-1301
-1302
-1302
-1302
-1302
-1303
-1303
-1303
-1303
-1304
-1304
-1305
-1305
-1305
-1305
-1305
-1304
-1304
-1305
-1305
-1305
-1306
-1307
-1306
-1306
-1306
-1305
-1305
-1306
-1307
-1307
-1308
-1308
-1308
-1308
-1307
-1307
-1307
-1307
-1307
-1308
-1308
-1308
-1308
-1308
-1308
-1307
-1307
-1307
-1308
-1309
-1310
-1310
-1309
-1309
-1308
-1308
-1308
-1308
-1309
-1309
-1310
-1309
-1309
-1309
-1309
-1308
-1308
-1308
-1309
-1309
-1309
-1309
-1309
-1309
-1308
-1308
-1307
-1308
-1309
-1309
-1309
-1309
-1309
-1309
-1308
-1308
-1308
-1308
-1309
-1308
-1309
-1309
-1309
-1309
-1308
-1308
-1308
-1309
-1309
-1309
-1309
-1309
-1309
-1309
-1309
-1308
-1308
-1309
-1310
-1310
-1310
-1309
-1309
-1308
-1307
-1305
-1304
-1304
-1303
-1303
-1303
-1302
-1300
-1297
-1297
-1296
-1296
-1296
-1296
-1296
-1296
-1296
-1293
-1290
-1286
-1282
-1281
-1281
-1283
-1287
-1290
-1292
-1293
-1294
-1294
-1295
-1297
-1298
-1299
-1301
-1302
-1304
-1305
-1306
-1308
-1308
-1310
-1311
-1312
-1312
-1313
-1314
-1314
-1314
-1313
-1313
-1313
-1314
-1314
-1315
-1315
-1315
-1315
-1314
-1313
-1313
-1314
-1314
-1315
-1316
-1315
-1317
-1319
-1322
-1325
-1332
-1340
-1349
-1355
-1361
-1362
-1355
-1340
-1320
-1294
-1256
-1205
-1145
-1081
-1018
-960
-903
-846
-796
-755
-718
-689
-671
-677
-712
-759
-817
-893
-979
-1067
-1154
-1236
-1300
-1324
-1332
-1337
-1337
-1331
-1324
-1317
-1311
-1303
-1297
-1293
-1289
-1286
-1284
-1284
-1284
-1283
-1284
-1285
-1286
-1286
-1286
-1285
-1284
-1284
-1283
-1282
-1282
-1282
-1281
-1281
-1281
-1280
-1279
-1278
-1277
-1276
-1276
-1276
-1275
-1275
-1274
-1273
-1272
-1270
-1269
-1268
-1267
-1266
-1266
-1264
-1263
-1262
-1261
-1259
-1258
-1256
-1255
-1254
-1253
-1251
-1250
-1249
-1248
-1246
-1244
-1242
-1241
-1239
-1238
-1237
-1235
-1232
-1231
-1228
-1225
-1223
-1221
-1219
-1218
-1215
-1213
-1210
-1207
-1204
-1201
-1198
-1195
-1192
-1189
-1186
-1183
-1180
-1177
-1174
-1171
-1168
-1166
-1164
-1163
-1161
-1159
-1156
-1154
-1152
-1149
-1148
-1146
-1145
-1145
-1145
-1144
-1144
-1144
-1143
-1143
-1145
-1146
-1149
-1153
-1157
-1160
-1164
-1168
-1172
-1178
-1184
-1190
-1195
-1201
-1207
-1212
-1217
-1222
-1228
-1232
-1236
-1240
-1245
-1249
-1253
-1257
-1260
-1263
-1264
-1267
-1269
-1271
-1273
-1275
-1278
-1279
-1280
-1280
-1281
-1281
-1282
-1283
-1284
-1285
-1285
-1286
-1286
-1287
-1286
-1286
-1286
-1286
-1287
-1288
-1288
-1288
-1287
-1288
-1287
-1285
-1286
-1286
-1286
-1286
-1286
-1286
-1285
-1286
-1284
-1283
-1284
-1284
-1284
-1284
-1284
-1284
-1284
-1284
-1283
-1282
-1282
-1282
-1283
-1284
-1284
-1284
-1283
-1283
-1282
-1282
-1282
-1283
-1283
-1284
-1284
-1284
-1285
-1285
-1284
-1283
-1284
-1284
-1285
-1286
-1286
-1287
-1287
-1287
-1286
-1287
-1287
-1287
-1288
-1290
-1290
-1290
-1291
-1291
-1291
-1291
-1292
-1292
-1293
-1293
-1293
-1294
-1294
-1294
-1293
-1293
-1294
-1295
-1295
-1296
-1296
-1295
-1296
-1296
-1295
-1295
-1296
-1297
-1297
-1298
-1299
-1298
-1298
-1298
-1298
-1297
-1297
-1299
-1299
-1299
-1300
-1300
-1300
-1299
-1299
-1298
-1299
-1299
-1300
-1300
-1300
-1300
-1300
-1300
-1300
-1300
-1300
-1300
-1301
-1301
-1302
-1302
-1301
-1301
-1300
-1300
-1300
-1300
-1301
-1301
-1302
-1301
-1302
-1301
-1301
-1301
-1301
-1301
-1301
-1301
-1301
-1302
-1301
-1300
-1299
-1299
-1298
-1297
-1297
-1296
-1294
-1292
-1290
-1289
-1289
-1289
-1290
-1291
-1292
-1291
-1289
-1285
-1282
-1277
-1272
-1269
-1267
-1269
-1272
-1276
-1279
-1281
-1282
-1282
-1283
-1285
-1287
-1289
-1292
-1294
-1296
-1299
-1300
-1301
-1303
-1304
-1305
-1307
-1308
-1309
-1309
-1308
-1308
-1309
-1309
-1309
-1310
-1310
-1311
-1311
-1311
-1311
-1311
-1310
-1310
-1310
-1311
-1311
-1312
-1312
-1313
-1315
-1317
-1321
-1328
-1336
-1343
-1350
-1355
-1356
-1349
-1335
-1315
-1289
-1251
-1201
-1142
-1080
-1018
-960
-904
-850
-805
-766
-730
-703
-683
-684
-712
-756
-811
-885
-970
-1059
-1149
-1232
-1295
-1318
-1326
-1334
-1337
-1333
-1327
-1320
-1313
-1306
-1299
-1293
-1290
-1287
-1284
-1283
-1283
-1283
-1283
-1283
-1284
-1284
-1284
-1284
-1284
-1284
-1282
-1281
-1281
-1280
-1280
-1280
-1279
-1279
-1278
-1277
-1276
-1275
-1273
-1273
-1273
-1273
-1272
-1271
-1270
-1269
-1268
-1267
-1266
-1265
-1264
-1264
-1263
-1263
-1261
-1260
-1258
-1256
-1254
-1253
-1253
-1252
-1251
-1249
-1248
-1246
-1244
-1242
-1240
-1239
-1238
-1236
-1234
-1233
-1231
-1229
-1226
-1223
-1221
-1220
-1217
-1215
-1213
-1210
-1207
-1203
-1200
-1197
-1194
-1191
-1189
-1187
-1184
-1181
-1178
-1175
-1171
-1168
-1166
-1164
-1162
-1161
-1159
-1157
-1155
-1153
-1150
-1149
-1148
-1147
-1146
-1146
-1146
-1146
-1146
-1146
-1147
-1149
-1151
-1155
-1159
-1163
-1167
-1172
-1177
-1181
-1186
-1191
-1197
-1203
-1209
-1215
-1220
-1225
-1230
-1234
-1239
-1242
-1247
-1252
-1255
-1259
-1262
-1265
-1268
-1270
-1273
-1273
-1276
-1278
-1280
-1282
-1283
-1284
-1284
-1285
-1286
-1286
-1287
-1288
-1288
-1289
-1290
-1291
-1290
-1290
-1290
-1290
-1290
-1291
-1291
-1291
-1291
-1291
-1290
-1290
-1289
-1289
-1289
-1289
-1289
-1290
-1289
-1289
-1289
-1288
-1287
-1287
-1286
-1287
-1287
-1287
-1288
-1287
-1286
-1286
-1284
-1285
-1285
-1285
-1285
-1286
-1287
-1286
-1285
-1285
-1285
-1285
-1286
-1286
-1287
-1287
-1288
-1289
-1288
-1288
-1288
-1288
-1289
-1289
-1290
-1291
-1292
-1292
-1293
-1292
-1292
-1292
-1293
-1294
-1295
-1295
-1296
-1297
-1296
-1295
-1295
-1296
-1297
-1297
-1298
-1299
-1299
-1299
-1299
-1299
-1299
-1299
-1300
-1300
-1301
-1302
-1303
-1303
-1302
-1302
-1302
-1301
-1302
-1302
-1303
-1303
-1303
-1304
-1303
-1303
-1302
-1303
-1304
-1304
-1305
-1305
-1305
-1305
-1305
-1304
-1304
-1305
-1305
-1306
-1306
-1306
-1306
-1306
-1305
-1305
-1304
-1305
-1306
-1306
-1306
-1306
-1307
-1307
-1306
-1305
-1305
-1305
-1306
-1306
-1306
-1306
-1307
-1306
-1307
-1306
-1306
-1306
-1306
-1307
-1307
-1307
-1307
-1307
-1307
-1306
-1306
-1306
-1307
-1307
-1307
-1307
-1308
-1308
-1307
-1306
-1306
-1307
-1307
-1308
-1307
-1308
-1308
-1308
-1308
-1307
-1307
-1307
-1307
-1308
-1308
-1308
-1308
-1308
-1308
-1307
-1307
-1306
-1306
-1306
-1306
-1304
-1304
-1303
-1302
-1301
-1300
-1299
-1297
-1296
-1296
-1296
-1296
-1296
-1296
-1294
-1294
-1293
-1291
-1288
-1285
-1283
-1282
-1282
-1284
-1286
-1288
-1290
-1292
-1296
-1297
-1298
-1300
-1300
-1300
-1301
-1302
-1303
-1306
-1308
-1310
-1311
-1312
-1312
-1312
-1312
-1313
-1314
-1315
-1315
-1315
-1316
-1316
-1315
-1315
-1316
-1316
-1316
-1316
-1316
-1317
-1317
-1317
-1317
-1317
-1317
-1316
-1319
-1323
-1327
-1333
-1341
-1349
-1355
-1361
-1364
-1360
-1350
-1333
-1312
-1281
-1236
-1178
-1113
-1047
-983
-923
-863
-808
-761
-722
-690
-667
-659
-682
-726
-779
-848
-935
-1026
-1115
-1199
-1274
-1318
-1330
-1334
-1332
-1326
-1321
-1316
-1310
-1304
-1297
-1292
-1288
-1285
-1284
-1284
-1286
-1287
-1287
-1288
-1287
-1288
-1287
-1286
-1287
-1287
-1287
-1287
-1287
-1286
-1285
-1284
-1283
-1282
-1282
-1281
-1280
-1280
-1280
-1279
-1279
-1278
-1276
-1275
-1274
-1274
-1273
-1272
-1272
-1271
-1269
-1268
-1267
-1266
-1264
-1263
-1262
-1261
-1261
-1259
-1258
-1256
-1254
-1252
-1251
-1250
-1249
-1247
-1246
-1245
-1243
-1240
-1238
-1236
-1234
-1232
-1230
-1228
-1226
-1223
-1221
-1217
-1214
-1212
-1209
-1206
-1203
-1201
-1197
-1194
-1191
-1187
-1183
-1180
-1177
-1174
-1172
-1168
-1166
-1163
-1160
-1157
-1154
-1151
-1149
-1148
-1146
-1145
-1143
-1141
-1140
-1138
-1137
-1136
-1136
-1136
-1138
-1139
-1140
-1142
-1144
-1147
-1150
-1154
-1158
-1164
-1170
-1175
-1181
-1186
-1192
-1197
-1203
-1208
-1214
-1220
-1226
-1231
-1236
-1241
-1245
-1248
-1252
-1255
-1259
-1262
-1265
-1268
-1270
-1271
-1273
-1274
-1275
-1277
-1278
-1279
-1281
-1282
-1283
-1283
-1283
-1283
-1283
-1284
-1284
-1284
-1285
-1286
-1286
-1286
-1286
-1284
-1284
-1284
-1285
-1285
-1285
-1285
-1285
-1284
-1283
-1282
-1283
-1283
-1283
-1283
-1283
-1283
-1283
-1282
-1282
-1281
-1280
-1281
-1281
-1281
-1281
-1282
-1282
-1281
-1281
-1280
-1280
-1281
-1281
-1280
-1281
-1282
-1282
-1281
-1281
-1280
-1281
-1281
-1282
-1282
-1283
-1284
-1284
-1283
-1283
-1283
-1283
-1284
-1285
-1285
-1285
-1286
-1287
-1286
-1286
-1286
-1286
-1286
-1287
-1288
-1288
-1288
-1289
-1288
-1288
-1288
-1288
-1289
-1290
-1290
-1291
-1291
-1292
-1291
-1291
-1291
-1291
-1291
-1291
-1292
-1292
-1292
-1292
-1292
-1292
-1291
-1291
-1292
-1293
-1292
-1292
-1292
-1293
-1292
-1292
-1292
-1292
-1292
-1292
-1293
-1294
-1293
-1293
-1293
-1293
-1292
-1292
-1292
-1293
-1293
-1293
-1294
-1294
-1293
-1293
-1292
-1293
-1293
-1293
-1294
-1294
-1294
-1294
-1293
-1293
-1293
-1293
-1292
-1293
-1294
-1294
-1294
-1294
-1293
-1293
-1293
-1292
-1292
-1293
-1294
-1295
-1295
-1295
-1294
-1293
-1293
-1293
-1293
-1293
-1294
-1294
-1294
-1294
-1294
-1293
-1293
-1293
-1293
-1293
-1294
-1294
-1294
-1293
-1293
-1293
-1292
-1291
-1291
-1291
-1292
-1291
-1290
-1289
-1289
-1288
-1287
-1286
-1285
-1283
-1282
-1281
-1281
-1281
-1281
-1279
-1279
-1278
-1277
-1275
-1272
-1269
-1268
-1266
-1266
-1269
-1271
-1273
-1275
-1277
-1280
-1282
-1283
-1283
-1284
-1284
-1284
-1286
-1288
-1291
-1293
-1294
-1296
-1296
-1296
-1296
-1297
-1297
-1297
-1298
-1298
-1298
-1299
-1299
-1298
-1298
-1297
-1297
-1299
-1299
-1299
-1299
-1300
-1299
-1299
-1298
-1299
-1299
-1302
-1305
-1309
-1315
-1321
-1329
-1335
-1340
-1343
-1340
-1329
-1312
-1290
-1258
-1212
-1156
-1093
-1027
-966
-910
-854
-803
-762
-725
-695
-671
-662
-682
-725
-776
-843
-925
-1012
-1101
-1184
-1260
-1300
-1311
-1318
-1321
-1318
-1312
-1305
-1300
-1293
-1283
-1277
-1272
-1268
-1267
-1266
-1266
-1267
-1267
-1268
-1268
-1268
-1267
-1267
-1267
-1267
-1267
-1267
-1267
-1266
-1266
-1263
-1262
-1262
-1262
-1261
-1261
-1260
-1260
-1259
-1258
-1256
-1255
-1254
-1254
-1253
-1252
-1252
-1251
-1250
-1249
-1247
-1246
-1244
-1244
-1243
-1242
-1241
-1240
-1238
-1236
-1234
-1232
-1231
-1230
-1229
-1229
-1228
-1226
-1224
-1221
-1218
-1217
-1215
-1214
-1213
-1211
-1209
-1207
-1205
-1202
-1198
-1196
-1193
-1191
-1189
-1186
-1182
-1179
-1176
-1173
-1170
-1166
-1163
-1161
-1158
-1156
-1154
-1151
-1148
-1146
-1143
-1141
-1139
-1137
-1136
-1134
-1133
-1132
-1130
-1128
-1126
-1125
-1125
-1125
-1126
-1127
-1127
-1129
-1132
-1134
-1135
-1139
-1143
-1148
-1153
-1158
-1164
-1169
-1175
-1180
-1185
-1190
-1196
-1201
-1207
-1212
-1218
-1222
-1226
-1230
-1234
-1237
-1241
-1245
-1248
-1250
-1252
-1255
-1257
-1258
-1259
-1260
-1262
-1264
-1265
-1266
-1267
-1268
-1268
-1268
-1268
-1269
-1269
-1270
-1271
-1272
-1271
-1271
-1271
-1271
-1270
-1270
-1270
-1270
-1270
-1271
-1271
-1271
-1270
-1270
-1270
-1269
-1269
-1269
-1269
-1269
-1269
-1269
-1269
-1268
-1267
-1267
-1267
-1267
-1267
-1268
-1268
-1267
-1267
-1266
-1266
-1266
-1267
-1267
-1268
-1268
-1268
-1269
-1269
-1268
-1267
-1267
-1268
-1269
-1270
-1271
-1271
-1271
-1271
-1270
-1270
-1270
-1271
-1272
-1272
-1273
-1274
-1274
-1273
-1273
-1274
-1274
-1275
-1276
-1277
-1277
-1277
-1277
-1277
-1278
-1277
-1278
-1278
-1279
-1280
-1280
-1280
-1280
-1280
-1280
-1279
-1280
-1280
-1281
-1282
-1282
-1283
-1282
-1282
-1282
-1282
-1282
-1283
-1284
-1284
-1284
-1284
-1284
-1284
-1283
-1283
-1284
-1284
-1285
-1285
-1285
-1285
-1285
-1285
-1284
-1284
-1284
-1285
-1285
-1286
-1286
-1286
-1286
-1285
-1285
-1285
-1285
-1285
-1286
-1286
-1286
-1287
-1287
-1286
-1286
-1286
-1286
-1286
-1287
-1288
-1287
-1287
-1287
-1286
-1286
-1286
-1285
-1285
-1285
-1285
-1284
-1283
-1282
-1281
-1280
-1279
-1277
-1276
-1276
-1277
-1277
-1277
-1277
-1275
-1273
-1271
-1269
-1266
-1262
-1261
-1260
-1261
-1263
-1266
-1268
-1270
-1272
-1274
-1276
-1277
-1279
-1280
-1281
-1281
-1282
-1284
-1286
-1289
-1291
-1292
-1293
-1293
-1293
-1294
-1294
-1294
-1295
-1296
-1297
-1297
-1298
-1298
-1297
-1297
-1297
-1297
-1297
-1298
-1298
-1299
-1298
-1299
-1299
-1298
-1298
-1300
-1303
-1308
-1315
-1323
-1330
-1337
-1342
-1344
-1338
-1327
-1309
-1286
-1251
-1203
-1146
-1083
-1020
-960
-904
-849
-802
-764
-727
-698
-677
-671
-693
-732
-783
-852
-936
-1024
-1116
-1200
-1272
-1302
-1311
-1317
-1323
-1320
-1315
-1309
-1303
-1298
-1289
-1282
-1278
-1274
-1272
-1270
-1270
-1271
-1271
-1272
-1272
-1271
-1271
-1270
-1270
-1270
-1270
-1270
-1270
-1270
-1269
-1268
-1267
-1266
-1265
-1265
-1264
-1264
-1264
-1263
-1262
-1261
-1260
-1259
-1258
-1257
-1257
-1256
-1256
-1255
-1254
-1253
-1252
-1250
-1249
-1248
-1247
-1247
-1246
-1245
-1243
-1241
-1240
-1238
-1237
-1235
-1234
-1233
-1232
-1231
-1229
-1226
-1224
-1222
-1220
-1219
-1217
-1215
-1214
-1211
-1209
-1206
-1203
-1200
-1197
-1194
-1192
-1190
-1187
-1184
-1181
-1177
-1175
-1171
-1168
-1165
-1163
-1161
-1159
-1156
-1154
-1152
-1149
-1146
-1144
-1143
-1142
-1140
-1139
-1138
-1138
-1137
-1135
-1135
-1134
-1136
-1137
-1139
-1141
-1144
-1147
-1149
-1153
-1157
-1162
-1168
-1173
-1180
-1185
-1191
-1196
-1201
-1206
-1211
-1217
-1223
-1228
-1233
-1237
-1242
-1246
-1249
-1252
-1255
-1258
-1261
-1264
-1266
-1268
-1270
-1271
-1273
-1274
-1275
-1276
-1277
-1278
-1279
-1280
-1281
-1282
-1282
-1282
-1282
-1281
-1282
-1283
-1284
-1284
-1284
-1284
-1284
-1283
-1282
-1282
-1283
-1283
-1283
-1283
-1283
-1283
-1283
-1282
-1281
-1281
-1282
-1282
-1281
-1282
-1282
-1282
-1281
-1280
-1280
-1280
-1280
-1280
-1281
-1281
-1282
-1281
-1281
-1281
-1280
-1281
-1281
-1282
-1283
-1283
-1283
-1283
-1283
-1282
-1283
-1283
-1284
-1285
-1286
-1287
-1287
-1287
-1287
-1286
-1287
-1287
-1288
-1289
-1290
-1291
-1291
-1291
-1291
-1292
-1291
-1291
-1292
-1293
-1294
-1294
-1295
-1295
-1294
-1294
-1294
-1294
-1296
-1297
-1297
-1297
-1298
-1298
-1298
-1298
-1297
-1297
-1298
-1299
-1299
-1299
-1300
-1300
-1300
-1300
-1300
-1300
-1301
-1301
-1302
-1302
-1302
-1302
-1301
-1301
-1301
-1301
-1302
-1303
-1303
-1304
-1304
-1303
-1303
-1302
-1302
-1303
-1304
-1304
-1305
-1305
-1305
-1305
-1305
-1304
-1304
-1304
-1304
-1305
-1305
-1305
-1306
-1306
-1305
-1305
-1305
-1305
-1306
-1307
-1306
-1307
-1307
-1306
-1306
-1306
-1305
-1306
-1307
-1307
-1306
-1307
-1307
-1305
-1304
-1304
-1303
-1302
-1302
-1302
-1301
-1302
-1300
-1297
-1295
-1294
-1293
-1294
-1295
-1295
-1295
-1295
-1294
-1292
-1288
-1285
-1282
-1282
-1282
-1282
-1285
-1288
-1290
-1292
-1293
-1295
-1297
-1298
-1300
-1301
-1302
-1302
-1304
-1306
-1307
-1309
-1310
-1312
-1313
-1314
-1314
-1315
-1315
-1315
-1316
-1315
-1316
-1316
-1317
-1317
-1318
-1318
-1317
-1317
-1317
-1317
-1317
-1317
-1318
-1319
-1320
-1320
-1320
-1323
-1325
-1331
-1339
-1347
-1355
-1361
-1366
-1366
-1358
-1343
-1322
-1295
-1254
-1200
-1138
-1072
-1007
-945
-884
-825
-774
-733
-699
-672
-659
-670
-709
-760
-823
-904
-995
-1083
-1170
-1251
-1310
-1330
-1336
-1336
-1331
-1325
-1319
-1313
-1307
-1300
-1295
-1291
-1289
-1287
-1287
-1287
-1287
-1287
-1288
-1289
-1290
-1290
-1290
-1291
-1290
-1289
-1288
-1287
-1287
-1287
-1287
-1287
-1286
-1285
-1284
-1283
-1282
-1280
-1281
-1281
-1280
-1280
-1279
-1278
-1278
-1276
-1274
-1273
-1272
-1272
-1271
-1270
-1270
-1268
-1266
-1264
-1263
-1262
-1261
-1261
-1259
-1258
-1257
-1256
-1253
-1251
-1250
-1249
-1247
-1246
-1244
-1242
-1240
-1238
-1236
-1233
-1231
-1229
-1227
-1224
-1222
-1220
-1217
-1215
-1211
-1208
-1204
-1201
-1199
-1196
-1194
-1191
-1187
-1184
-1181
-1177
-1174
-1171
-1169
-1167
-1166
-1163
-1161
-1159
-1156
-1154
-1152
-1150
-1150
-1149
-1148
-1147
-1146
-1146
-1145
-1146
-1147
-1148
-1150
-1153
-1157
-1161
-1165
-1169
-1174
-1178
-1184
-1190
-1196
-1202
-1208
-1214
-1220
-1225
-1230
-1235
-1240
-1244
-1250
-1254
-1259
-1263
-1267
-1270
-1272
-1274
-1277
-1279
-1282
-1284
-1286
-1288
-1289
-1290
-1291
-1291
-1291
-1292
-1293
-1294
-1295
-1295
-1295
-1295
-1295
-1295
-1295
-1295
-1295
-1296
-1296
-1296
-1296
-1296
-1295
-1295
-1294
-1294
-1294
-1294
-1295
-1295
-1295
-1295
-1294
-1293
-1293
-1293
-1293
-1293
-1294
-1294
-1293
-1292
-1292
-1292
-1291
-1291
-1292
-1292
-1292
-1293
-1293
-1292
-1292
-1291
-1292
-1292
-1293
-1294
-1293
-1294
-1294
-1294
-1295
-1294
-1294
-1294
-1295
-1296
-1296
-1297
-1297
-1297
-1297
-1296
-1296
-1297
-1298
-1299
-1300
-1300
-1300
-1300
-1299
-1299
-1299
-1300
-1300
-1301
-1302
-1302
-1302
-1301
-1301
-1301
-1301
-1302
-1303
-1303
-1304
-1304
-1304
-1304
-1303
-1302
-1303
-1303
-1303
-1303
-1304
-1304
-1305
-1304
-1303
-1303
-1304
-1304
-1305
-1305
-1306
-1305
-1305
-1305
-1305
-1304
-1305
-1305
-1305
-1306
-1306
-1306
-1306
-1305
-1305
-1305
-1305
-1305
-1305
-1306
-1306
-1306
-1306
-1306
-1305
-1305
-1305
-1306
-1306
-1305
-1306
-1306
-1306
-1306
-1306
-1305
-1305
-1305
-1305
-1306
-1306
-1306
-1306
-1305
-1304
-1304
-1304
-1304
-1305
-1305
-1304
-1304
-1303
-1301
-1300
-1299
-1299
-1299
-1299
-1298
-1295
-1294
-1293
-1293
-1292
-1292
-1291
-1292
-1291
-1290
-1287
-1284
-1281
-1279
-1278
-1279
-1282
-1284
-1287
-1289
-1291
-1292
-1293
-1294
-1295
-1296
-1297
-1298
-1300
-1302
-1304
-1305
-1306
-1307
-1307
-1308
-1309
-1310
-1311
-1311
-1312
-1311
-1311
-1311
-1311
-1311
-1312
-1312
-1312
-1313
-1313
-1312
-1312
-1312
-1311
-1311
-1311
-1312
-1313
-1316
-1319
-1323
-1329
-1337
-1344
-1350
-1356
-1358
-1353
-1340
-1320
-1296
-1258
-1207
-1147
-1081
-1016
-956
-899
-843
-792
-751
-713
-682
-660
-661
-693
-741
-798
-875
-964
-1055
-1144
-1226
-1293
-1319
-1327
-1332
-1331
-1325
-1319
-1313
-1307
-1298
-1291
-1286
-1282
-1280
-1279
-1279
-1280
-1280
-1280
-1280
-1280
-1280
-1281
-1281
-1280
-1280
-1280
-1280
-1278
-1277
-1276
-1276
-1276
-1276
-1275
-1275
-1274
-1273
-1271
-1271
-1270
-1269
-1268
-1267
-1267
-1266
-1265
-1264
-1262
-1261
-1260
-1259
-1258
-1257
-1257
-1256
-1255
-1252
-1251
-1249
-1248
-1247
-1246
-1245
-1243
-1242
-1241
-1239
-1236
-1234
-1232
-1230
-1229
-1228
-1226
-1224
-1222
-1220
-1217
-1215
-1212
-1209
-1207
-1205
-1203
-1201
-1199
-1195
-1191
-1188
-1185
-1181
-1179
-1175
-1173
-1171
-1169
-1166
-1163
-1160
-1158
-1156
-1154
-1152
-1150
-1150
-1147
-1146
-1144
-1142
-1141
-1141
-1140
-1140
-1139
-1140
-1140
-1141
-1143
-1144
-1146
-1150
-1154
-1158
-1163
-1168
-1173
-1178
-1182
-1188
-1194
-1200
-1205
-1211
-1217
-1222
-1227
-1231
-1235
-1239
-1243
-1247
-1251
-1255
-1258
-1260
-1263
-1264
-1266
-1268
-1270
-1271
-1272
-1274
-1275
-1276
-1276
-1277
-1278
-1278
-1278
-1278
-1279
-1280
-1280
-1281
-1280
-1280
-1280
-1279
-1279
-1280
-1279
-1280
-1281
-1280
-1280
-1279
-1279
-1278
-1277
-1277
-1277
-1277
-1278
-1278
-1278
-1278
-1277
-1277
-1277
-1277
-1277
-1278
-1278
-1278
-1277
-1277
-1277
-1276
-1277
-1277
-1277
-1278
-1278
-1279
-1279
-1279
-1278
-1278
-1278
-1278
-1279
-1279
-1280
-1280
-1280
-1280
-1280
-1281
-1281
-1282
-1283
-1283
-1284
-1284
-1285
-1284
-1284
-1284
-1284
-1284
-1285
-1285
-1286
-1287
-1286
-1287
-1287
-1287
-1287
-1287
-1288
-1289
-1290
-1290
-1290
-1290
-1289
-1289
-1290
-1290
-1291
-1291
-1292
-1292
-1292
-1291
-1291
-1291
-1292
-1291
-1292
-1293
-1293
-1293
-1292
-1292
-1292
-1292
-1292
-1293
-1294
-1294
-1294
-1294
-1293
-1293
-1293
-1293
-1293
-1294
-1294
-1295
-1296
-1296
-1295
-1295
-1294
-1294
-1294
-1294
-1295
-1296
-1296
-1296
-1296
-1295
-1294
-1294
-1294
-1295
-1295
-1295
-1294
-1294
-1293
-1292
-1291
-1290
-1290
-1291
-1291
-1290
-1289
-1286
-1285
-1284
-1283
-1284
-1284
-1284
-1284
-1284
-1283
-1280
-1276
-1272
-1270
-1269
-1268
-1271
-1274
-1277
-1279
-1281
-1282
-1283
-1284
-1285
-1287
-1288
-1289
-1290
-1292
-1295
-1296
-1296
-1298
-1299
-1300
-1300
-1301
-1302
-1303
-1303
-1303
-1303
-1302
-1303
-1303
-1304
-1305
-1305
-1305
-1305
-1305
-1304
-1303
-1304
-1305
-1305
-1305
-1305
-1307
-1309
-1312
-1317
-1323
-1330
-1337
-1343
-1347
-1344
-1336
-1320
-1298
-1268
-1225
-1170
-1110
-1048
-987
-932
-878
-828
-788
-751
-719
-696
-681
-692
-725
-774
-836
-917
-1002
-1092
-1178
-1256
-1301
-1315
-1321
-1329
-1331
-1326
-1320
-1313
-1306
-1298
-1291
-1286
-1283
-1279
-1277
-1276
-1276
-1276
-1276
-1277
-1278
-1278
-1278
-1277
-1276
-1276
-1275
-1275
-1274
-1274
-1273
-1274
-1273
-1273
-1273
-1272
-1270
-1268
-1268
-1267
-1267
-1267
-1266
-1265
-1264
-1263
-1262
-1261
-1259
-1259
-1258
-1257
-1257
-1256
-1255
-1253
-1251
-1250
-1249
-1247
-1247
-1245
-1244
-1243
-1241
-1240
-1238
-1236
-1234
-1233
-1232
-1231
-1229
-1228
-1225
-1223
-1221
-1218
-1216
-1214
-1211
-1209
-1207
-1205
-1203
-1199
-1196
-1193
-1190
-1187
-1184
-1182
-1180
-1178
-1175
-1172
-1169
-1166
-1164
-1162
-1160
-1158
-1157
-1155
-1153
-1151
-1149
-1147
-1146
-1145
-1145
-1145
-1145
-1145
-1145
-1145
-1146
-1147
-1149
-1152
-1156
-1160
-1165
-1169
-1174
-1178
-1183
-1188
-1193
-1199
-1205
-1210
-1215
-1221
-1226
-1230
-1234
-1239
-1243
-1247
-1251
-1255
-1258
-1261
-1263
-1265
-1267
-1269
-1270
-1272
-1274
-1276
-1277
-1279
-1279
-1280
-1280
-1280
-1280
-1281
-1282
-1282
-1283
-1283
-1284
-1283
-1282
-1282
-1282
-1282
-1283
-1283
-1283
-1284
-1283
-1282
-1282
-1281
-1281
-1282
-1282
-1282
-1282
-1282
-1282
-1282
-1281
-1280
-1280
-1280
-1281
-1281
-1281
-1281
-1281
-1281
-1281
-1280
-1280
-1281
-1281
-1282
-1282
-1282
-1282
-1282
-1281
-1282
-1282
-1283
-1284
-1284
-1285
-1285
-1286
-1286
-1286
-1285
-1286
-1286
-1287
-1288
-1289
-1289
-1289
-1289
-1289
-1289
-1290
-1291
-1292
-1292
-1292
-1293
-1293
-1292
-1292
-1292
-1293
-1294
-1295
-1295
-1295
-1295
-1296
-1296
-1295
-1295
-1296
-1297
-1297
-1297
-1298
-1298
-1298
-1297
-1298
-1297
-1298
-1299
-1299
-1299
-1300
-1300
-1300
-1299
-1298
-1299
-1301
-1300
-1300
-1301
-1301
-1301
-1300
-1300
-1300
-1300
-1301
-1301
-1301
-1302
-1302
-1302
-1302
-1302
-1301
-1301
-1301
-1303
-1303
-1303
-1303
-1303
-1303
-1303
-1302
-1302
-1303
-1303
-1303
-1303
-1304
-1304
-1304
-1303
-1303
-1303
-1303
-1304
-1305
-1305
-1305
-1305
-1304
-1303
-1302
-1302
-1302
-1301
-1301
-1301
-1300
-1299
-1298
-1297
-1296
-1294
-1293
-1292
-1292
-1292
-1292
-1292
-1291
-1291
-1290
-1288
-1285
-1283
-1279
-1279
-1279
-1279
-1282
-1283
-1286
-1288
-1290
-1292
-1294
-1295
-1296
-1297
-1297
-1297
-1298
-1301
-1304
-1305
-1307
-1308
-1309
-1309
-1309
-1309
-1309
-1310
-1310
-1311
-1311
-1311
-1312
-1313
-1312
-1311
-1311
-1311
-1311
-1313
-1312
-1312
-1313
-1313
-1313
-1312
-1313
-1316
-1318
-1324
-1332
-1340
-1348
-1355
-1359
-1360
-1352
-1339
-1319
-1294
-1255
-1202
-1140
-1073
-1006
-945
-885
-827
-776
-736
-701
-672
-656
-664
-700
-748
-809
-890
-981
-1072
-1160
-1240
-1301
-1323
-1329
-1330
-1326
-1321
-1315
-1310
-1304
-1297
-1290
-1286
-1283
-1280
-1279
-1281
-1282
-1283
-1283
-1284
-1284
-1285
-1284
-1283
-1283
-1283
-1282
-1283
-1282
-1281
-1281
-1280
-1279
-1278
-1278
-1277
-1277
-1277
-1276
-1275
-1274
-1273
-1272
-1271
-1270
-1269
-1269
-1268
-1267
-1267
-1266
-1264
-1262
-1261
-1260
-1259
-1258
-1257
-1256
-1255
-1253
-1252
-1250
-1247
-1246
-1246
-1245
-1242
-1241
-1240
-1237
-1236
-1234
-1231
-1229
-1227
-1226
-1224
-1222
-1219
-1216
-1214
-1211
-1208
-1205
-1203
-1200
-1198
-1195
-1192
-1189
-1185
-1182
-1179
-1176
-1173
-1171
-1169
-1167
-1164
-1162
-1159
-1156
-1155
-1153
-1151
-1151
-1149
-1148
-1147
-1145
-1145
-1143
-1143
-1143
-1143
-1145
-1146
-1148
-1151
-1154
-1156
-1160
-1164
-1170
-1175
-1181
-1186
-1192
-1197
-1203
-1208
-1213
-1219
-1224
-1230
-1235
-1240
-1245
-1249
-1253
-1257
-1260
-1263
-1266
-1269
-1272
-1275
-1277
-1278
-1280
-1281
-1282
-1283
-1284
-1285
-1286
-1287
-1288
-1288
-1289
-1288
-1288
-1288
-1288
-1289
-1290
-1290
-1290
-1290
-1289
-1288
-1288
-1288
-1287
-1288
-1288
-1288
-1288
-1288
-1288
-1287
-1286
-1286
-1285
-1286
-1286
-1286
-1287
-1286
-1285
-1285
-1284
-1284
-1284
-1285
-1285
-1285
-1285
-1286
-1285
-1284
-1284
-1284
-1285
-1286
-1286
-1287
-1287
-1287
-1287
-1287
-1287
-1286
-1286
-1287
-1288
-1288
-1288
-1289
-1289
-1288
-1289
-1288
-1289
-1290
-1290
-1291
-1291
-1292
-1291
-1291
-1291
-1291
-1291
-1292
-1293
-1293
-1294
-1294
-1293
-1293
-1293
-1293
-1293
-1294
-1295
-1295
-1295
-1295
-1295
-1295
-1295
-1295
-1296
-1296
-1296
-1297
-1297
-1297
-1296
-1296
-1296
-1296
-1296
-1296
-1297
-1297
-1297
-1297
-1297
-1296
-1296
-1297
-1297
-1297
-1297
-1297
-1297
-1297
-1296
-1296
-1296
-1296
-1297
-1298
-1298
-1297
-1298
-1298
-1298
-1297
-1296
-1296
-1296
-1297
-1297
-1297
-1297
-1297
-1297
-1296
-1296
-1296
-1296
-1297
-1297
-1297
-1297
-1297
-1297
-1296
-1296
-1296
-1296
-1296
-1296
-1296
-1296
-1295
-1293
-1292
-1290
-1290
-1290
-1290
-1289
-1286
-1285
-1284
-1283
-1283
-1283
-1282
-1283
-1283
-1281
-1278
-1276
-1271
-1269
-1268
-1267
-1271
-1274
-1276
-1278
-1281
-1282
-1283
-1283
-1284
-1284
-1286
-1287
-1290
-1292
-1294
-1296
-1297
-1298
-1299
-1299
-1299
-1300
-1301
-1301
-1302
-1302
-1302
-1302
-1301
-1301
-1301
-1302
-1302
-1302
-1303
-1303
-1302
-1302
-1301
-1301
-1302
-1303
-1303
-1306
-1308
-1312
-1318
-1325
-1333
-1339
-1346
-1348
-1343
-1332
-1313
-1289
-1254
-1205
-1145
-1081
-1017
-956
-899
-843
-794
-753
-715
-684
-661
-658
-686
-733
-789
-864
-951
-1041
-1130
-1213
-1282
-1310
-1318
-1324
-1326
-1321
-1314
-1308
-1302
-1294
-1285
-1281
-1276
-1273
-1272
-1272
-1272
-1272
-1273
-1272
-1272
-1272
-1273
-1273
-1273
-1273
-1272
-1271
-1270
-1270
-1269
-1268
-1268
-1268
-1267
-1267
-1267
-1265
-1264
-1263
-1262
-1261
-1261
-1261
-1260
-1259
-1258
-1257
-1256
-1254
-1252
-1252
-1251
-1250
-1249
-1248
-1247
-1246
-1244
-1242
-1240
-1239
-1239
-1238
-1237
-1235
-1233
-1231
-1229
-1227
-1225
-1224
-1222
-1221
-1219
-1217
-1215
-1213
-1210
-1207
-1205
-1202
-1199
-1198
-1195
-1193
-1190
-1187
-1185
-1182
-1179
-1176
-1174
-1172
-1169
-1166
-1164
-1161
-1158
-1155
-1153
-1151
-1148
-1147
-1146
-1145
-1143
-1142
-1139
-1138
-1137
-1137
-1137
-1137
-1137
-1137
-1138
-1139
-1139
-1141
-1144
-1147
-1151
-1155
-1160
-1165
-1171
-1175
-1180
-1184
-1190
-1195
-1201
-1206
-1212
-1217
-1222
-1226
-1230
-1234
-1237
-1241
-1245
-1248
-1252
-1255
-1257
-1259
-1260
-1261
-1263
-1265
-1267
-1269
-1270
-1271
-1271
-1271
-1271
-1272
-1272
-1272
-1273
-1274
-1274
-1275
-1275
-1274
-1274
-1274
-1273
-1274
-1274
-1275
-1275
-1274
-1273
-1273
-1273
-1272
-1272
-1272
-1272
-1272
-1272
-1272
-1272
-1271
-1270
-1270
-1269
-1269
-1270
-1270
-1271
-1272
-1271
-1271
-1271
-1270
-1270
-1270
-1271
-1272
-1272
-1272
-1272
-1271
-1271
-1271
-1271
-1272
-1273
-1274
-1274
-1275
-1275
-1274
-1273
-1274
-1274
-1274
-1274
-1275
-1276
-1276
-1277
-1277
-1277
-1277
-1277
-1278
-1278
-1279
-1279
-1280
-1280
-1279
-1279
-1279
-1279
-1280
-1281
-1281
-1282
-1282
-1281
-1282
-1282
-1282
-1282
-1283
-1284
-1284
-1285
-1284
-1284
-1284
-1284
-1284
-1284
-1285
-1285
-1286
-1286
-1286
-1286
-1286
-1285
-1285
-1285
-1285
-1285
-1287
-1287
-1287
-1287
-1287
-1287
-1287
-1287
-1287
-1287
-1288
-1287
-1288
-1288
-1287
-1287
-1287
-1287
-1288
-1288
-1289
-1289
-1289
-1288
-1288
-1287
-1288
-1287
-1287
-1287
-1287
-1286
-1285
-1284
-1283
-1282
-1282
-1282
-1280
-1279
-1278
-1278
-1278
-1278
-1278
-1276
-1276
-1275
-1273
-1270
-1267
-1264
-1264
-1263
-1264
-1266
-1269
-1270
-1272
-1275
-1277
-1278
-1279
-1280
-1281
-1282
-1283
-1285
-1287
-1289
-1290
-1292
-1294
-1294
-1294
-1293
-1294
-1295
-1295
-1296
-1297
-1297
-1297
-1297
-1297
-1297
-1297
-1297
-1298
-1299
-1299
-1299
-1299
-1299
-1298
-1298
-1297
-1299
-1301
-1304
-1310
-1317
-1324
-1330
-1336
-1340
-1340
-1333
-1320
-1301
-1274
-1234
-1182
-1123
-1061
-999
-942
-889
-837
-796
-759
-726
-700
-682
-684
-713
-757
-815
-893
-977
-1067
-1155
-1235
-1290
-1307
-1315
-1322
-1327
-1325
-1319
-1312
-1306
-1299
-1290
-1283
-1278
-1275
-1273
-1272
-1273
-1272
-1272
-1272
-1272
-1272
-1271
-1271
-1271
-1272
-1271
-1271
-1271
-1270
-1269
-1268
-1267
-1267
-1266
-1266
-1266
-1266
-1266
-1264
-1263
-1261
-1260
-1259
-1259
-1258
-1258
-1258
-1256
-1255
-1253
-1252
-1251
-1250
-1249
-1249
-1248
-1247
-1246
-1245
-1243
-1241
-1240
-1239
-1238
-1237
-1236
-1234
-1233
-1231
-1229
-1227
-1225
-1224
-1223
-1221
-1219
-1217
-1215
-1212
-1209
-1206
-1204
-1202
-1200
-1198
-1195
-1192
-1190
-1187
-1183
-1180
-1177
-1175
-1172
-1171
-1169
-1166
-1164
-1162
-1159
-1157
-1155
-1153
-1152
-1151
-1151
-1149
-1148
-1147
-1145
-1144
-1143
-1144
-1145
-1146
-1148
-1149
-1151
-1153
-1156
-1160
-1163
-1168
-1173
-1178
-1183
-1189
-1194
-1198
-1203
-1208
-1213
-1220
-1225
-1230
-1234
-1239
-1243
-1246
-1249
-1253
-1255
-1259
-1262
-1264
-1267
-1269
-1271
-1271
-1273
-1274
-1275
-1277
-1278
-1279
-1280
-1281
-1281
-1281
-1281
-1281
-1281
-1282
-1283
-1282
-1283
-1283
-1283
-1283
-1282
-1281
-1282
-1283
-1282
-1282
-1282
-1283
-1282
-1282
-1281
-1281
-1280
-1281
-1281
-1281
-1282
-1282
-1281
-1281
-1280
-1280
-1281
-1280
-1280
-1281
-1281
-1282
-1282
-1281
-1280
-1280
-1281
-1282
-1282
-1283
-1283
-1284
-1283
-1283
-1283
-1284
-1285
-1286
-1286
-1287
-1287
-1288
-1287
-1287
-1288
-1289
-1289
-1289
-1290
-1291
-1292
-1291
-1292
-1292
-1292
-1293
-1293
-1294
-1295
-1296
-1296
-1297
-1296
-1296
-1295
-1296
-1297
-1297
-1298
-1299
-1299
-1299
-1299
-1299
-1299
-1298
-1299
-1300
-1300
-1301
-1301
-1302
-1302
-1301
-1301
-1302
-1302
-1302
-1302
-1303
-1303
-1304
-1303
-1303
-1302
-1302
-1303
-1303
-1305
-1305
-1305
-1305
-1304
-1304
-1304
-1304
-1304
-1305
-1305
-1306
-1305
-1305
-1306
-1306
-1306
-1305
-1305
-1306
-1307
-1307
-1307
-1307
-1306
-1307
-1307
-1307
-1307
-1308
-1308
-1308
-1309
-1309
-1308
-1308
-1307
-1307
-1308
-1308
-1307
-1307
-1306
-1305
-1304
-1303
-1302
-1302
-1302
-1301
-1298
-1298
-1298
-1297
-1297
-1297
-1297
-1296
-1296
-1295
-1292
-1288
-1286
-1285
-1284
-1285
-1288
-1291
-1293
-1295
-1298
-1300
-1301
-1302
-1302
-1303
-1304
-1305
-1307
-1310
-1312
-1314
-1315
-1316
-1317
-1316
-1317
-1318
-1319
-1320
-1320
-1321
-1321
-1321
-1321
-1320
-1320
-1320
-1320
-1321
-1322
-1323
-1322
-1322
-1322
-1322
-1322
-1322
-1324
-1327
-1331
-1336
-1343
-1351
-1358
-1364
-1369
-1369
-1362
-1347
-1326
-1299
-1257
-1202
-1139
-1073
-1008
-948
-889
-833
-786
-745
-710
-682
-668
-680
-719
-771
-836
-920
-1010
-1101
-1187
-1266
-1319
-1336
-1341
-1343
-1340
-1335
-1329
-1324
-1318
-1309
-1303
-1299
-1295
-1293
-1293
-1294
-1295
-1296
-1297
-1297
-1296
-1295
-1296
-1295
-1296
-1296
-1296
-1295
-1294
-1294
-1293
-1292
-1291
-1291
-1291
-1290
-1289
-1289
-1288
-1287
-1286
-1285
-1284
-1284
-1283
-1282
-1282
-1281
-1280
-1278
-1277
-1276
-1274
-1274
-1273
-1272
-1271
-1270
-1269
-1268
-1265
-1264
-1262
-1261
-1260
-1259
-1258
-1256
-1254
-1252
-1250
-1248
-1246
-1244
-1242
-1241
-1239
-1236
-1234
-1231
-1229
-1226
-1223
-1221
-1220
-1216
-1214
-1211
-1208
-1205
-1201
-1197
-1195
-1193
-1191
-1188
-1186
-1183
-1181
-1178
-1175
-1173
-1172
-1170
-1169
-1168
-1167
-1165
-1163
-1162
-1161
-1160
-1159
-1160
-1160
-1161
-1162
-1165
-1167
-1169
-1172
-1175
-1179
-1184
-1189
-1195
-1201
-1206
-1211
-1215
-1221
-1226
-1232
-1239
-1245
-1249
-1254
-1259
-1263
-1267
-1271
-1274
-1277
-1281
-1284
-1287
-1289
-1291
-1293
-1295
-1296
-1297
-1298
-1300
-1301
-1303
-1304
-1304
-1304
-1304
-1305
-1305
-1305
-1306
-1306
-1306
-1308
-1307
-1307
-1306
-1305
-1305
-1305
-1306
-1306
-1306
-1306
-1306
-1305
-1304
-1304
-1304
-1304
-1304
-1305
-1304
-1304
-1303
-1303
-1303
-1303
-1302
-1303
-1302
-1303
-1303
-1303
-1303
-1303
-1302
-1302
-1302
-1303
-1303
-1304
-1305
-1305
-1304
-1304
-1304
-1304
-1305
-1305
-1305
-1306
-1307
-1307
-1307
-1307
-1307
-1307
-1307
-1307
-1308
-1309
-1309
-1310
-1310
-1310
-1310
-1309
-1310
-1311
-1311
-1312
-1312
-1313
-1313
-1312
-1312
-1312
-1312
-1313
-1314
-1314
-1314
-1315
-1315
-1315
-1314
-1314
-1315
-1315
-1316
-1316
-1316
-1316
-1317
-1316
-1315
-1315
-1316
-1316
-1317
-1317
-1318
-1317
-1317
-1317
-1317
-1317
-1316
-1318
-1318
-1318
-1318
-1318
-1319
-1318
-1318
-1317
-1318
-1318
-1319
-1319
-1319
-1319
-1319
-1319
-1319
-1318
-1318
-1318
-1319
-1319
-1319
-1319
-1319
-1319
-1318
-1318
-1319
-1319
-1320
-1320
-1320
-1320
-1319
-1319
-1318
-1318
-1319
-1319
