-1375
-1376
-1377
-1378
-1378
-1381
-1384
-1387
-1390
-1393
-1394
-1395
-1395
-1394
-1394
-1394
-1395
-1397
-1399
-1399
-1399
-1399
-1399
-1398
-1398
-1399
-1399
-1400
-1400
-1400
-1400
-1401
-1400
-1400
-1400
-1401
-1403
-1407
-1412
-1419
-1426
-1433
-1437
-1441
-1442
-1438
-1426
-1408
-1387
-1352
-1303
-1245
-1182
-1119
-1061
-1004
-949
-899
-857
-822
-795
-777
-779
-810
-858
-912
-983
-1065
-1149
-1233
-1309
-1374
-1407
-1419
-1424
-1423
-1417
-1411
-1405
-1400
-1391
-1383
-1377
-1373
-1370
-1368
-1368
-1368
-1369
-1370
-1371
-1370
-1369
-1368
-1368
-1367
-1368
-1368
-1369
-1368
-1367
-1366
-1365
-1363
-1363
-1363
-1363
-1362
-1361
-1360
-1359
-1358
-1356
-1355
-1353
-1352
-1353
-1353
-1352
-1352
-1351
-1348
-1346
-1345
-1344
-1343
-1342
-1341
-1342
-1341
-1340
-1337
-1335
-1334
-1332
-1331
-1330
-1329
-1329
-1326
-1323
-1321
-1318
-1315
-1312
-1310
-1309
-1307
-1306
-1305
-1304
-1302
-1298
-1294
-1291
-1288
-1286
-1283
-1279
-1276
-1273
-1269
-1265
-1262
-1258
-1256
-1253
-1250
-1247
-1244
-1242
-1238
-1234
-1231
-1230
-1230
-1229
-1227
-1225
-1223
-1220
-1217
-1216
-1216
-1216
-1217
-1219
-1221
-1221
-1222
-1224
-1226
-1230
-1234
-1239
-1244
-1249
-1255
-1260
-1265
-1270
-1275
-1281
-1287
-1293
-1300
-1305
-1311
-1316
-1322
-1327
-1331
-1335
-1340
-1343
-1347
-1351
-1354
-1356
-1357
-1359
-1360
-1361
-1362
-1365
-1367
-1368
-1368
-1370
-1371
-1370
-1370
-1371
-1373
-1374
-1375
-1374
-1373
-1374
-1374
-1373
-1374
-1375
-1375
-1376
-1376
-1376
-1376
-1376
-1376
-1377
-1375
-1374
-1374
-1375
-1376
-1376
-1376
-1376
-1376
-1375
-1373
-1372
-1371
-1371
-1372
-1372
-1373
-1373
-1372
-1372
-1371
-1370
-1370
-1370
-1370
-1370
-1371
-1371
-1371
-1371
-1370
-1370
-1370
-1370
-1370
-1371
-1372
-1373
-1373
-1373
-1373
-1373
-1373
-1373
-1374
-1374
-1373
-1373
-1375
-1375
-1375
-1374
-1375
-1375
-1376
-1377
-1377
-1377
-1378
-1378
-1378
-1377
-1377
-1379
-1380
-1381
-1381
-1381
-1381
-1380
-1380
-1380
-1380
-1380
-1380
-1381
-1383
-1383
-1384
-1383
-1383
-1384
-1384
-1384
-1386
-1386
-1386
-1386
-1385
-1384
-1382
-1381
-1381
-1383
-1386
-1386
-1387
-1387
-1387
-1387
-1387
-1386
-1385
-1386
-1388
-1389
-1389
-1389
-1389
-1388
-1387
-1387
-1386
-1386
-1387
-1387
-1388
-1388
-1389
-1389
-1388
-1387
-1387
-1386
-1388
-1389
-1390
-1390
-1391
-1391
-1389
-1388
-1388
-1389
-1389
-1389
-1389
-1388
-1388
-1388
-1388
-1387
-1389
-1390
-1391
-1391
-1390
-1390
-1390
-1390
-1390
-1389
-1390
-1390
-1390
-1390
-1390
-1391
-1391
-1391
-1390
-1389
-1389
-1391
-1392
-1393
-1393
-1392
-1392
-1392
-1391
-1391
-1391
-1390
-1390
-1391
-1391
-1391
-1391
-1390
-1390
-1391
-1391
-1392
-1392
-1392
-1393
-1393
-1392
-1391
-1390
-1390
-1390
-1391
-1391
-1390
-1389
-1389
-1389
-1388
-1386
-1385
-1384
-1383
-1382
-1382
-1382
-1383
-1383
-1383
-1382
-1380
-1380
-1378
-1375
-1372
-1369
-1367
-1366
-1368
-1370
-1373
-1375
-1377
-1380
-1382
-1384
-1384
-1384
-1386
-1385
-1385
-1387
-1389
-1391
-1393
-1395
-1397
-1397
-1397
-1397
-1397
-1397
-1398
-1398
-1398
-1399
-1400
-1399
-1398
-1398
-1398
-1399
-1399
-1400
-1401
-1401
-1401
-1400
-1399
-1399
-1398
-1398
-1400
-1403
-1407
-1412
-1418
-1425
-1431
-1435
-1438
-1436
-1428
-1414
-1394
-1367
-1327
-1276
-1219
-1158
-1100
-1048
-997
-948
-908
-872
-840
-818
-803
-810
-840
-885
-941
-1016
-1095
-1179
-1262
-1335
-1387
-1407
-1415
-1424
-1430
-1429
-1423
-1417
-1410
-1402
-1393
-1385
-1380
-1376
-1374
-1373
-1372
-1373
-1373
-1373
-1372
-1371
-1370
-1371
-1371
-1371
-1371
-1370
-1369
-1369
-1368
-1367
-1367
-1366
-1366
-1366
-1365
-1365
-1363
-1362
-1361
-1359
-1359
-1357
-1356
-1355
-1354
-1355
-1355
-1355
-1355
-1353
-1350
-1349
-1349
-1349
-1349
-1347
-1346
-1343
-1341
-1340
-1339
-1338
-1336
-1335
-1334
-1332
-1331
-1329
-1326
-1323
-1321
-1319
-1318
-1317
-1315
-1314
-1311
-1308
-1305
-1301
-1297
-1295
-1293
-1291
-1289
-1286
-1284
-1281
-1278
-1274
-1270
-1268
-1265
-1263
-1261
-1258
-1255
-1253
-1249
-1245
-1244
-1242
-1241
-1240
-1240
-1239
-1238
-1236
-1235
-1233
-1232
-1232
-1233
-1234
-1236
-1237
-1239
-1241
-1244
-1247
-1251
-1256
-1261
-1267
-1273
-1278
-1283
-1289
-1293
-1298
-1304
-1310
-1316
-1323
-1329
-1333
-1338
-1342
-1345
-1347
-1351
-1355
-1359
-1362
-1364
-1366
-1368
-1369
-1371
-1373
-1374
-1376
-1377
-1378
-1379
-1380
-1381
-1381
-1381
-1382
-1381
-1380
-1381
-1382
-1383
-1385
-1386
-1387
-1386
-1385
-1384
-1385
-1386
-1385
-1385
-1385
-1385
-1385
-1385
-1384
-1383
-1384
-1385
-1385
-1385
-1384
-1383
-1383
-1382
-1382
-1381
-1382
-1382
-1382
-1382
-1383
-1382
-1381
-1381
-1380
-1379
-1379
-1380
-1381
-1381
-1382
-1383
-1383
-1382
-1381
-1380
-1381
-1381
-1381
-1382
-1383
-1384
-1384
-1384
-1384
-1383
-1383
-1385
-1385
-1386
-1387
-1387
-1387
-1386
-1385
-1385
-1385
-1387
-1388
-1389
-1390
-1391
-1392
-1391
-1391
-1391
-1391
-1391
-1392
-1392
-1392
-1392
-1392
-1392
-1392
-1394
-1394
-1394
-1395
-1395
-1395
-1395
-1395
-1396
-1396
-1396
-1397
-1397
-1398
-1398
-1399
-1398
-1398
-1397
-1397
-1398
-1399
-1399
-1399
-1400
-1400
-1400
-1399
-1398
-1398
-1399
-1399
-1399
-1400
-1400
-1400
-1399
-1399
-1398
-1399
-1399
-1399
-1401
-1402
-1403
-1403
-1401
-1401
-1400
-1400
-1399
-1399
-1400
-1401
-1402
-1402
-1402
-1402
-1402
-1401
-1400
-1400
-1401
-1401
-1401
-1402
-1403
-1404
-1404
-1403
-1402
-1402
-1402
-1404
-1403
-1404
-1404
-1404
-1402
-1402
-1402
-1403
-1404
-1404
-1404
-1404
-1405
-1404
-1403
-1402
-1402
-1403
-1402
-1403
-1404
-1404
-1404
-1404
-1403
-1402
-1401
-1401
-1403
-1404
-1404
-1404
-1404
-1404
-1404
-1404
-1404
-1405
-1406
-1406
-1406
-1405
-1404
-1403
-1403
-1403
-1404
-1404
-1405
-1405
-1405
-1404
-1404
-1404
-1404
-1403
-1405
-1406
-1406
-1406
-1406
-1405
-1404
-1404
-1402
-1401
-1400
-1400
-1401
-1402
-1402
-1401
-1400
-1397
-1394
-1393
-1393
-1393
-1394
-1394
-1393
-1393
-1392
-1390
-1386
-1384
-1381
-1380
-1381
-1382
-1385
-1387
-1388
-1389
-1389
-1391
-1393
-1396
-1398
-1398
-1398
-1398
-1398
-1400
-1403
-1404
-1406
-1408
-1409
-1409
-1410
-1410
-1409
-1410
-1409
-1410
-1411
-1411
-1412
-1413
-1413
-1413
-1413
-1412
-1412
-1412
-1413
-1414
-1414
-1415
-1415
-1413
-1413
-1413
-1416
-1419
-1423
-1430
-1439
-1448
-1454
-1459
-1460
-1453
-1440
-1421
-1400
-1369
-1323
-1266
-1205
-1142
-1081
-1023
-966
-913
-871
-836
-808
-791
-792
-819
-864
-915
-982
-1063
-1147
-1231
-1308
-1378
-1418
-1430
-1433
-1431
-1426
-1419
-1415
-1410
-1402
-1396
-1391
-1387
-1383
-1381
-1381
-1382
-1383
-1385
-1387
-1388
-1387
-1387
-1386
-1385
-1383
-1382
-1382
-1382
-1382
-1382
-1381
-1381
-1380
-1378
-1377
-1377
-1377
-1376
-1376
-1375
-1374
-1373
-1373
-1371
-1369
-1368
-1368
-1368
-1367
-1366
-1365
-1364
-1362
-1360
-1359
-1359
-1358
-1356
-1356
-1354
-1353
-1352
-1351
-1346
-1345
-1343
-1342
-1341
-1339
-1337
-1337
-1336
-1332
-1330
-1327
-1325
-1322
-1321
-1319
-1316
-1314
-1310
-1307
-1304
-1300
-1297
-1296
-1293
-1290
-1288
-1284
-1280
-1276
-1272
-1268
-1264
-1261
-1259
-1257
-1255
-1253
-1252
-1250
-1247
-1244
-1241
-1240
-1239
-1238
-1237
-1237
-1236
-1235
-1233
-1233
-1233
-1235
-1236
-1239
-1242
-1246
-1249
-1253
-1258
-1263
-1269
-1273
-1279
-1285
-1292
-1297
-1304
-1310
-1317
-1322
-1328
-1334
-1340
-1345
-1349
-1353
-1357
-1360
-1363
-1365
-1369
-1371
-1374
-1377
-1380
-1382
-1382
-1383
-1384
-1385
-1386
-1388
-1389
-1389
-1390
-1391
-1393
-1393
-1391
-1390
-1391
-1391
-1392
-1392
-1392
-1392
-1392
-1393
-1393
-1393
-1393
-1393
-1394
-1394
-1394
-1394
-1392
-1391
-1392
-1391
-1391
-1391
-1392
-1391
-1391
-1390
-1390
-1389
-1389
-1388
-1389
-1389
-1389
-1389
-1388
-1389
-1389
-1389
-1389
-1387
-1387
-1388
-1388
-1388
-1389
-1389
-1389
-1389
-1388
-1388
-1389
-1388
-1389
-1389
-1389
-1389
-1389
-1388
-1387
-1387
-1388
-1389
-1391
-1392
-1393
-1392
-1392
-1392
-1391
-1391
-1392
-1392
-1393
-1393
-1393
-1393
-1393
-1392
-1391
-1393
-1394
-1395
-1396
-1396
-1396
-1397
-1396
-1395
-1395
-1395
-1396
-1397
-1398
-1398
-1397
-1397
-1396
-1396
-1396
-1396
-1397
-1398
-1399
-1400
-1400
-1399
-1398
-1398
-1398
-1398
-1398
-1399
-1399
-1400
-1401
-1400
-1399
-1398
-1398
-1399
-1401
-1401
-1401
-1401
-1400
-1400
-1399
-1399
-1400
-1401
-1402
-1402
-1402
-1403
-1402
-1401
-1400
-1399
-1399
-1400
-1402
-1403
-1403
-1403
-1402
-1402
-1402
-1402
-1401
-1402
-1402
-1402
-1402
-1401
-1402
-1402
-1401
-1400
-1400
-1399
-1400
-1402
-1403
-1404
-1403
-1402
-1402
-1401
-1400
-1400
-1402
-1401
-1401
-1402
-1402
-1402
-1403
-1402
-1401
-1401
-1402
-1402
-1403
-1404
-1403
-1403
-1403
-1401
-1401
-1400
-1401
-1402
-1404
-1405
-1403
-1403
-1403
-1402
-1401
-1401
-1402
-1404
-1404
-1404
-1403
-1402
-1402
-1401
-1400
-1400
-1402
-1404
-1405
-1404
-1403
-1403
-1402
-1401
-1401
-1401
-1401
-1401
-1402
-1402
-1403
-1403
-1404
-1402
-1401
-1401
-1401
-1402
-1401
-1401
-1400
-1399
-1398
-1396
-1395
-1393
-1392
-1392
-1392
-1392
-1393
-1393
-1392
-1391
-1390
-1389
-1388
-1383
-1380
-1378
-1377
-1379
-1381
-1383
-1384
-1385
-1388
-1391
-1393
-1394
-1395
-1395
-1395
-1397
-1399
-1401
-1402
-1403
-1406
-1407
-1407
-1407
-1408
-1407
-1407
-1407
-1407
-1408
-1409
-1409
-1410
-1410
-1409
-1408
-1407
-1408
-1408
-1409
-1409
-1410
-1411
-1411
-1411
-1411
-1411
-1411
-1414
-1419
-1424
-1431
-1439
-1444
-1448
-1450
-1447
-1437
-1421
-1401
-1372
-1331
-1279
-1221
-1160
-1103
-1049
-996
-947
-906
-869
-838
-816
-803
-819
-856
-904
-963
-1039
-1118
-1205
-1285
-1357
-1406
-1423
-1430
-1437
-1439
-1434
-1429
-1422
-1416
-1407
-1398
-1392
-1386
-1382
-1380
-1380
-1381
-1382
-1381
-1381
-1381
-1381
-1381
-1380
-1381
-1381
-1381
-1380
-1379
-1378
-1377
-1377
-1375
-1373
-1373
-1373
-1373
-1374
-1373
-1372
-1372
-1371
-1369
-1367
-1367
-1366
-1365
-1365
-1364
-1362
-1361
-1359
-1358
-1356
-1355
-1355
-1355
-1353
-1353
-1351
-1349
-1348
-1346
-1344
-1343
-1343
-1342
-1340
-1338
-1335
-1333
-1331
-1329
-1327
-1326
-1325
-1323
-1321
-1318
-1315
-1313
-1311
-1307
-1304
-1303
-1300
-1297
-1294
-1291
-1287
-1284
-1280
-1277
-1273
-1270
-1268
-1266
-1264
-1261
-1258
-1256
-1253
-1249
-1247
-1246
-1245
-1243
-1241
-1240
-1238
-1236
-1233
-1232
-1232
-1233
-1236
-1237
-1239
-1241
-1242
-1243
-1246
-1250
-1255
-1260
-1265
-1270
-1276
-1282
-1289
-1293
-1298
-1302
-1309
-1315
-1321
-1328
-1333
-1337
-1341
-1345
-1348
-1350
-1354
-1357
-1361
-1364
-1368
-1370
-1372
-1373
-1374
-1375
-1377
-1380
-1382
-1383
-1384
-1385
-1385
-1385
-1385
-1385
-1386
-1387
-1388
-1389
-1389
-1388
-1387
-1387
-1387
-1387
-1387
-1388
-1388
-1388
-1388
-1388
-1387
-1387
-1386
-1386
-1387
-1387
-1387
-1388
-1388
-1388
-1387
-1387
-1385
-1385
-1384
-1386
-1386
-1386
-1385
-1384
-1383
-1383
-1382
-1383
-1384
-1385
-1385
-1384
-1384
-1384
-1384
-1384
-1384
-1385
-1385
-1385
-1385
-1385
-1386
-1386
-1385
-1385
-1385
-1384
-1385
-1387
-1388
-1390
-1391
-1391
-1389
-1389
-1388
-1388
-1388
-1389
-1390
-1391
-1391
-1392
-1392
-1391
-1392
-1392
-1393
-1393
-1394
-1394
-1394
-1393
-1393
-1393
-1393
-1394
-1395
-1395
-1396
-1398
-1397
-1396
-1396
-1396
-1397
-1397
-1397
-1398
-1398
-1399
-1399
-1399
-1399
-1398
-1398
-1397
-1397
-1398
-1399
-1400
-1401
-1402
-1402
-1401
-1399
-1399
-1400
-1401
-1401
-1401
-1401
-1401
-1402
-1401
-1400
-1401
-1401
-1402
-1402
-1402
-1402
-1402
-1399
-1399
-1399
-1398
-1399
-1402
-1403
-1404
-1404
-1403
-1403
-1403
-1403
-1403
-1403
-1404
-1403
-1404
-1403
-1403
-1402
-1402
-1402
-1402
-1403
-1404
-1404
-1404
-1405
-1404
-1404
-1402
-1402
-1402
-1402
-1403
-1402
-1402
-1402
-1403
-1403
-1403
-1404
-1404
-1405
-1406
-1406
-1406
-1406
-1406
-1405
-1404
-1404
-1404
-1406
-1406
-1407
-1407
-1406
-1405
-1405
-1403
-1402
-1401
-1401
-1401
-1400
-1401
-1400
-1398
-1395
-1393
-1392
-1393
-1394
-1394
-1394
-1395
-1396
-1394
-1391
-1387
-1382
-1380
-1380
-1380
-1382
-1384
-1387
-1390
-1391
-1393
-1395
-1397
-1398
-1399
-1401
-1401
-1403
-1404
-1405
-1406
-1407
-1409
-1410
-1411
-1412
-1413
-1412
-1412
-1412
-1412
-1411
-1412
-1413
-1414
-1415
-1415
-1416
-1416
-1415
-1415
-1415
-1415
-1416
-1416
-1416
-1417
-1416
-1416
-1418
-1419
-1423
-1429
-1437
-1445
-1452
-1458
-1461
-1457
-1446
-1427
-1407
-1378
-1335
-1281
-1222
-1159
-1099
-1043
-987
-934
-890
-852
-822
-800
-792
-810
-850
-899
-960
-1039
-1123
-1208
-1289
-1362
-1412
-1427
-1435
-1438
-1435
-1430
-1424
-1418
-1412
-1404
-1397
-1392
-1389
-1387
-1385
-1385
-1385
-1385
-1386
-1386
-1387
-1387
-1387
-1386
-1384
-1384
-1384
-1385
-1385
-1386
-1385
-1385
-1384
-1382
-1380
-1379
-1378
-1377
-1378
-1378
-1378
-1377
-1376
-1375
-1373
-1372
-1371
-1370
-1369
-1369
-1369
-1367
-1365
-1364
-1362
-1360
-1359
-1359
-1358
-1358
-1357
-1355
-1353
-1352
-1349
-1347
-1345
-1344
-1342
-1339
-1336
-1336
-1335
-1333
-1331
-1330
-1329
-1327
-1323
-1322
-1320
-1317
-1314
-1310
-1306
-1302
-1299
-1297
-1295
-1291
-1289
-1286
-1281
-1277
-1274
-1271
-1268
-1266
-1264
-1262
-1260
-1257
-1255
-1252
-1250
-1247
-1245
-1244
-1242
-1242
-1241
-1241
-1241
-1240
-1238
-1238
-1239
-1241
-1244
-1247
-1250
-1254
-1258
-1263
-1266
-1272
-1278
-1284
-1291
-1299
-1307
-1313
-1318
-1323
-1328
-1334
-1339
-1344
-1349
-1355
-1359
-1362
-1366
-1369
-1371
-1373
-1376
-1379
-1382
-1386
-1389
-1390
-1389
-1390
-1390
-1390
-1391
-1393
-1394
-1394
-1396
-1397
-1397
-1396
-1396
-1395
-1395
-1395
-1397
-1398
-1399
-1400
-1399
-1399
-1399
-1398
-1399
-1399
-1400
-1400
-1400
-1399
-1399
-1397
-1397
-1396
-1395
-1396
-1396
-1397
-1398
-1397
-1397
-1395
-1395
-1394
-1394
-1395
-1395
-1395
-1396
-1396
-1397
-1395
-1394
-1394
-1394
-1394
-1395
-1395
-1396
-1396
-1395
-1395
-1395
-1394
-1395
-1395
-1394
-1394
-1396
-1397
-1398
-1398
-1397
-1397
-1397
-1398
-1398
-1398
-1400
-1400
-1400
-1400
-1399
-1399
-1400
-1400
-1400
-1401
-1401
-1401
-1401
-1401
-1402
-1401
-1402
-1403
-1404
-1404
-1405
-1405
-1405
-1404
-1404
-1404
-1403
-1403
-1404
-1403
-1404
-1404
-1405
-1406
-1406
-1405
-1405
-1406
-1407
-1407
-1408
-1407
-1406
-1406
-1406
-1406
-1407
-1407
-1407
-1408
-1409
-1408
-1407
-1406
-1406
-1406
-1406
-1408
-1407
-1408
-1409
-1409
-1408
-1407
-1407
-1406
-1406
-1407
-1408
-1409
-1408
-1408
-1407
-1407
-1406
-1405
-1405
-1407
-1407
-1407
-1408
-1409
-1407
-1407
-1407
-1407
-1406
-1407
-1407
-1407
-1408
-1408
-1406
-1406
-1405
-1406
-1406
-1406
-1407
-1407
-1407
-1408
-1406
-1406
-1407
-1405
-1405
-1405
-1405
-1406
-1406
-1406
-1406
-1405
-1405
-1404
-1405
-1407
-1408
-1408
-1408
-1407
-1407
-1407
-1406
-1406
-1406
-1407
-1408
-1407
-1407
-1407
-1405
-1405
-1405
-1406
-1406
-1407
-1407
-1407
-1407
-1406
-1406
-1404
-1405
-1406
-1406
-1406
-1407
-1406
-1405
-1404
-1403
-1401
-1401
-1401
-1401
-1401
-1402
-1401
-1399
-1397
-1395
-1393
-1393
-1394
-1394
-1394
-1394
-1394
-1392
-1389
-1385
-1381
-1380
-1379
-1380
-1383
-1386
-1389
-1391
-1393
-1393
-1394
-1395
-1396
-1397
-1398
-1399
-1400
-1402
-1404
-1405
-1407
-1407
-1408
-1409
-1409
-1410
-1411
-1412
-1412
-1410
-1409
-1409
-1409
-1410
-1410
-1411
-1412
-1413
-1413
-1412
-1411
-1411
-1412
-1412
-1411
-1412
-1413
-1414
-1417
-1420
-1424
-1431
-1439
-1445
-1451
-1455
-1453
-1442
-1424
-1403
-1374
-1331
-1279
-1221
-1160
-1103
-1050
-995
-943
-901
-864
-832
-809
-799
-817
-857
-905
-965
-1041
-1121
-1205
-1285
-1358
-1408
-1425
-1433
-1441
-1442
-1436
-1428
-1420
-1412
-1404
-1397
-1392
-1389
-1386
-1384
-1382
-1382
-1383
-1382
-1382
-1383
-1384
-1384
-1383
-1384
-1383
-1382
-1381
-1379
-1379
-1378
-1378
-1378
-1379
-1378
-1377
-1376
-1374
-1373
-1372
-1371
-1372
-1372
-1372
-1371
-1369
-1367
-1366
-1364
-1364
-1363
-1362
-1361
-1361
-1359
-1357
-1355
-1353
-1352
-1351
-1351
-1350
-1349
-1347
-1346
-1344
-1342
-1341
-1339
-1336
-1335
-1334
-1333
-1333
-1330
-1326
-1323
-1321
-1318
-1316
-1314
-1313
-1311
-1307
-1304
-1301
-1297
-1293
-1291
-1289
-1287
-1285
-1281
-1277
-1274
-1271
-1267
-1264
-1261
-1259
-1257
-1255
-1254
-1251
-1249
-1247
-1244
-1241
-1240
-1239
-1238
-1240
-1240
-1239
-1238
-1236
-1236
-1237
-1239
-1242
-1246
-1250
-1254
-1259
-1263
-1267
-1271
-1276
-1281
-1287
-1294
-1299
-1305
-1311
-1318
-1324
-1329
-1333
-1338
-1342
-1347
-1351
-1355
-1358
-1361
-1364
-1366
-1368
-1370
-1373
-1375
-1378
-1380
-1381
-1382
-1383
-1383
-1383
-1383
-1384
-1386
-1386
-1387
-1387
-1387
-1387
-1387
-1386
-1387
-1388
-1389
-1389
-1390
-1390
-1389
-1389
-1388
-1387
-1387
-1388
-1388
-1388
-1388
-1388
-1388
-1388
-1388
-1387
-1386
-1386
-1386
-1387
-1387
-1386
-1386
-1386
-1384
-1384
-1384
-1385
-1386
-1386
-1386
-1385
-1385
-1385
-1383
-1382
-1383
-1384
-1385
-1386
-1387
-1387
-1387
-1386
-1385
-1385
-1385
-1386
-1387
-1388
-1389
-1388
-1388
-1387
-1386
-1387
-1387
-1388
-1389
-1391
-1391
-1390
-1391
-1390
-1390
-1390
-1391
-1392
-1393
-1393
-1394
-1394
-1394
-1393
-1393
-1393
-1394
-1396
-1397
-1397
-1397
-1397
-1397
-1396
-1395
-1395
-1396
-1397
-1397
-1398
-1399
-1399
-1399
-1399
-1398
-1397
-1398
-1398
-1398
-1399
-1399
-1399
-1400
-1401
-1401
-1400
-1400
-1400
-1401
-1402
-1402
-1401
-1400
-1401
-1401
-1400
-1400
-1401
-1402
-1403
-1403
-1402
-1402
-1401
-1401
-1401
-1402
-1402
-1402
-1403
-1403
-1403
-1402
-1402
-1402
-1402
-1402
-1402
-1403
-1404
-1405
-1404
-1403
-1402
-1402
-1402
-1403
-1404
-1404
-1404
-1404
-1403
-1403
-1403
-1402
-1402
-1402
-1403
-1405
-1405
-1405
-1405
-1405
-1404
-1404
-1404
-1404
-1405
-1405
-1406
-1406
-1405
-1405
-1404
-1403
-1403
-1402
-1403
-1404
-1405
-1404
-1403
-1402
-1401
-1401
-1400
-1399
-1399
-1397
-1395
-1393
-1393
-1393
-1393
-1392
-1392
-1393
-1393
-1391
-1388
-1385
-1381
-1380
-1378
-1380
-1383
-1386
-1389
-1392
-1394
-1396
-1397
-1397
-1397
-1397
-1397
-1399
-1401
-1403
-1405
-1406
-1407
-1408
-1408
-1409
-1411
-1411
-1412
-1413
-1413
-1413
-1413
-1413
-1412
-1413
-1412
-1413
-1414
-1415
-1414
-1414
-1414
-1413
-1413
-1413
-1414
-1415
-1415
-1416
-1418
-1420
-1424
-1431
-1439
-1445
-1450
-1455
-1456
-1450
-1436
-1417
-1393
-1357
-1308
-1250
-1189
-1128
-1072
-1017
-963
-917
-879
-843
-817
-798
-798
-825
-870
-924
-994
-1076
-1161
-1245
-1321
-1388
-1419
-1429
-1436
-1438
-1435
-1430
-1424
-1418
-1410
-1401
-1395
-1391
-1388
-1387
-1387
-1387
-1386
-1385
-1385
-1384
-1385
-1385
-1385
-1386
-1386
-1385
-1384
-1384
-1384
-1383
-1382
-1382
-1382
-1381
-1381
-1379
-1378
-1377
-1376
-1376
-1375
-1375
-1374
-1373
-1373
-1372
-1370
-1369
-1368
-1366
-1364
-1363
-1363
-1363
-1362
-1362
-1360
-1358
-1356
-1354
-1353
-1353
-1351
-1349
-1348
-1347
-1346
-1343
-1340
-1338
-1337
-1334
-1332
-1332
-1330
-1328
-1326
-1324
-1320
-1318
-1316
-1314
-1312
-1309
-1306
-1302
-1299
-1295
-1291
-1287
-1284
-1282
-1279
-1276
-1274
-1270
-1268
-1265
-1261
-1258
-1256
-1254
-1253
-1252
-1250
-1246
-1245
-1244
-1242
-1241
-1241
-1240
-1240
-1241
-1241
-1243
-1244
-1244
-1246
-1249
-1252
-1256
-1262
-1268
-1272
-1279
-1284
-1289
-1295
-1302
-1308
-1315
-1321
-1326
-1332
-1337
-1341
-1347
-1350
-1354
-1358
-1363
-1367
-1371
-1373
-1375
-1377
-1378
-1381
-1384
-1385
-1387
-1388
-1389
-1390
-1391
-1391
-1391
-1391
-1392
-1393
-1395
-1396
-1397
-1397
-1397
-1397
-1397
-1396
-1396
-1396
-1396
-1396
-1395
-1396
-1396
-1397
-1396
-1396
-1396
-1396
-1396
-1396
-1397
-1397
-1396
-1395
-1395
-1394
-1393
-1393
-1394
-1394
-1394
-1394
-1394
-1393
-1393
-1393
-1393
-1392
-1393
-1393
-1394
-1393
-1392
-1392
-1392
-1392
-1392
-1392
-1393
-1394
-1394
-1393
-1393
-1393
-1393
-1392
-1392
-1392
-1393
-1394
-1395
-1396
-1396
-1395
-1395
-1395
-1395
-1396
-1397
-1398
-1399
-1399
-1399
-1399
-1398
-1399
-1399
-1401
-1401
-1401
-1400
-1400
-1400
-1400
-1401
-1401
-1401
-1402
-1402
-1402
-1403
-1403
-1403
-1403
-1404
-1403
-1404
-1405
-1406
-1406
-1406
-1406
-1406
-1406
-1405
-1405
-1405
-1406
-1406
-1407
-1408
-1407
-1407
-1407
-1406
-1406
-1406
-1406
-1407
-1408
-1409
-1409
-1408
-1408
-1407
-1406
-1406
-1407
-1407
-1409
-1409
-1409
-1409
-1408
-1408
-1406
-1406
-1407
-1407
-1407
-1409
-1409
-1408
-1407
-1407
-1407
-1407
-1407
-1409
-1409
-1409
-1409
-1409
-1408
-1407
-1407
-1407
-1408
-1408
-1409
-1410
-1409
-1409
-1410
-1409
-1408
-1407
-1408
-1411
-1411
-1411
-1412
-1411
-1410
-1410
-1409
-1409
-1409
-1409
-1410
-1410
-1410
-1410
-1409
-1409
-1408
-1408
-1409
-1410
-1409
-1409
-1409
-1410
-1410
-1408
-1408
-1408
-1409
-1410
-1410
-1410
-1410
-1410
-1409
-1408
-1407
-1408
-1408
-1407
-1407
-1407
-1406
-1405
-1404
-1403
-1403
-1401
-1399
-1398
-1398
-1397
-1398
-1397
-1396
-1397
-1396
-1396
-1393
-1391
-1387
-1385
-1384
-1383
-1385
-1387
-1389
-1392
-1394
-1397
-1399
-1400
-1401
-1401
-1400
-1400
-1402
-1404
-1408
-1409
-1410
-1411
-1412
-1412
-1411
-1411
-1411
-1412
-1414
-1414
-1415
-1416
-1415
-1415
-1416
-1415
-1415
-1415
-1416
-1416
-1416
-1416
-1416
-1416
-1416
-1415
-1414
-1415
-1417
-1420
-1425
-1431
-1439
-1447
-1453
-1458
-1461
-1456
-1445
-1427
-1405
-1374
-1328
-1270
-1208
-1145
-1087
-1031
-975
-922
-878
-841
-809
-786
-781
-805
-850
-901
-969
-1050
-1136
-1222
-1301
-1372
-1416
-1431
-1437
-1437
-1432
-1427
-1419
-1413
-1404
-1397
-1392
-1386
-1383
-1383
-1383
-1384
-1385
-1385
-1386
-1385
-1384
-1383
-1382
-1382
-1383
-1383
-1383
-1382
-1380
-1379
-1378
-1377
-1377
-1377
-1377
-1377
-1376
-1376
-1375
-1373
-1372
-1370
-1369
-1369
-1368
-1368
-1367
-1366
-1365
-1364
-1362
-1360
-1359
-1358
-1358
-1356
-1356
-1355
-1353
-1351
-1349
-1348
-1346
-1345
-1344
-1343
-1341
-1339
-1337
-1335
-1332
-1330
-1329
-1326
-1326
-1324
-1322
-1319
-1317
-1314
-1311
-1308
-1304
-1301
-1298
-1296
-1294
-1289
-1286
-1283
-1279
-1276
-1273
-1271
-1268
-1265
-1262
-1258
-1256
-1252
-1249
-1247
-1244
-1243
-1241
-1239
-1238
-1236
-1234
-1231
-1230
-1229
-1228
-1228
-1229
-1230
-1231
-1232
-1234
-1236
-1239
-1243
-1247
-1252
-1257
-1263
-1269
-1274
-1280
-1286
-1290
-1296
-1302
-1309
-1316
-1322
-1328
-1333
-1337
-1340
-1344
-1349
-1354
-1358
-1361
-1364
-1367
-1369
-1370
-1371
-1372
-1374
-1376
-1378
-1381
-1381
-1382
-1383
-1384
-1384
-1384
-1384
-1384
-1385
-1387
-1388
-1387
-1387
-1387
-1386
-1386
-1386
-1386
-1387
-1387
-1387
-1387
-1387
-1387
-1387
-1386
-1386
-1386
-1386
-1386
-1386
-1386
-1386
-1385
-1385
-1384
-1384
-1384
-1384
-1386
-1387
-1386
-1386
-1384
-1384
-1384
-1383
-1384
-1385
-1384
-1384
-1385
-1385
-1384
-1383
-1382
-1382
-1382
-1382
-1383
-1384
-1386
-1385
-1384
-1385
-1385
-1385
-1385
-1387
-1389
-1389
-1388
-1388
-1388
-1388
-1388
-1388
-1389
-1389
-1390
-1390
-1391
-1392
-1392
-1391
-1391
-1391
-1392
-1392
-1392
-1393
-1393
-1392
-1393
-1393
-1394
-1394
-1393
-1394
-1396
-1396
-1395
-1396
-1397
-1397
-1396
-1396
-1397
-1397
-1397
-1398
-1399
-1399
-1399
-1398
-1398
-1398
-1399
-1399
-1399
-1399
-1400
-1399
-1399
-1399
-1399
-1400
-1400
-1400
-1401
-1401
-1400
-1400
-1401
-1400
-1399
-1400
-1400
-1401
-1402
-1403
-1403
-1401
-1401
-1400
-1400
-1401
-1401
-1402
-1401
-1402
-1403
-1403
-1402
-1402
-1402
-1402
-1403
-1404
-1405
-1405
-1405
-1404
-1404
-1403
-1402
-1402
-1403
-1403
-1404
-1404
-1405
-1404
-1403
-1404
-1404
-1404
-1405
-1405
-1405
-1405
-1405
-1404
-1404
-1404
-1404
-1405
-1404
-1404
-1405
-1405
-1405
-1405
-1405
-1405
-1405
-1405
-1404
-1405
-1405
-1405
-1404
-1404
-1404
-1404
-1405
-1406
-1405
-1405
-1406
-1406
-1404
-1403
-1401
-1400
-1400
-1400
-1401
-1399
-1397
-1396
-1396
-1396
-1395
-1395
-1394
-1394
-1394
-1393
-1390
-1387
-1384
-1382
-1380
-1379
-1382
-1384
-1387
-1388
-1391
-1393
-1394
-1395
-1396
-1398
-1398
-1399
-1401
-1404
-1405
-1406
-1406
-1407
-1407
-1408
-1409
-1410
-1411
-1411
-1412
-1411
-1411
-1411
-1411
-1411
-1411
-1412
-1412
-1413
-1413
-1413
-1412
-1413
-1412
-1412
-1412
-1412
-1413
-1414
-1416
-1420
-1423
-1429
-1435
-1440
-1445
-1450
-1451
-1443
-1429
-1409
-1384
-1348
-1299
-1244
-1185
-1126
-1072
-1020
-969
-927
-892
-857
-832
-814
-815
-841
-883
-937
-1006
-1085
-1167
-1252
-1327
-1387
-1413
-1424
-1433
-1442
-1444
-1438
-1431
-1424
-1416
-1406
-1398
-1393
-1389
-1386
-1384
-1383
-1384
-1384
-1383
-1382
-1383
-1383
-1383
-1382
-1382
-1382
-1381
-1381
-1379
-1379
-1378
-1378
-1377
-1377
-1378
-1378
-1377
-1376
-1374
-1373
-1372
-1371
-1371
-1371
-1370
-1368
-1367
-1366
-1364
-1362
-1361
-1361
-1361
-1361
-1360
-1357
-1356
-1354
-1353
-1351
-1350
-1350
-1349
-1348
-1347
-1345
-1343
-1341
-1339
-1337
-1336
-1335
-1333
-1331
-1329
-1326
-1324
-1322
-1318
-1315
-1313
-1311
-1309
-1307
-1304
-1300
-1296
-1293
-1289
-1286
-1283
-1281
-1279
-1276
-1274
-1271
-1268
-1265
-1262
-1259
-1257
-1256
-1254
-1252
-1250
-1248
-1247
-1245
-1242
-1240
-1240
-1240
-1241
-1241
-1241
-1243
-1243
-1245
-1246
-1250
-1254
-1259
-1263
-1267
-1272
-1278
-1284
-1289
-1294
-1299
-1304
-1311
-1317
-1323
-1329
-1334
-1339
-1343
-1346
-1350
-1355
-1359
-1363
-1367
-1369
-1372
-1373
-1375
-1376
-1378
-1380
-1382
-1384
-1385
-1386
-1386
-1387
-1387
-1387
-1388
-1389
-1391
-1393
-1393
-1392
-1392
-1391
-1391
-1391
-1390
-1392
-1393
-1393
-1394
-1393
-1392
-1391
-1390
-1390
-1390
-1390
-1391
-1391
-1391
-1390
-1391
-1390
-1390
-1390
-1389
-1389
-1389
-1389
-1389
-1389
-1388
-1388
-1387
-1387
-1387
-1387
-1387
-1388
-1388
-1388
-1389
-1388
-1386
-1386
-1386
-1387
-1386
-1387
-1387
-1387
-1386
-1387
-1389
-1390
-1389
-1390
-1391
-1391
-1392
-1393
-1393
-1393
-1392
-1392
-1392
-1392
-1392
-1393
-1394
-1395
-1396
-1395
-1395
-1395
-1395
-1395
-1396
-1396
-1397
-1398
-1398
-1398
-1397
-1397
-1397
-1397
-1398
-1400
-1400
-1401
-1402
-1401
-1400
-1398
-1398
-1398
-1399
-1402
-1403
-1403
-1403
-1403
-1402
-1401
-1401
-1403
-1403
-1404
-1404
-1404
-1403
-1404
-1403
-1402
-1402
-1402
-1403
-1403
-1403
-1404
-1404
-1404
-1403
-1403
-1404
-1404
-1405
-1406
-1406
-1406
-1405
-1405
-1405
-1404
-1404
-1405
-1406
-1407
-1406
-1405
-1404
-1404
-1404
-1404
-1406
-1406
-1406
-1406
-1407
-1408
-1408
-1406
-1406
-1406
-1406
-1407
-1408
-1408
-1407
-1408
-1407
-1407
-1406
-1406
-1406
-1406
-1407
-1408
-1407
-1408
-1408
-1407
-1407
-1406
-1405
-1406
-1406
-1407
-1407
-1407
-1407
-1407
-1406
-1405
-1405
-1407
-1407
-1408
-1409
-1409
-1407
-1406
-1405
-1405
-1406
-1406
-1407
-1408
-1407
-1407
-1406
-1405
-1404
-1403
-1402
-1402
-1401
-1398
-1397
-1396
-1395
-1395
-1396
-1396
-1395
-1395
-1396
-1395
-1392
-1388
-1385
-1383
-1381
-1382
-1385
-1388
-1390
-1393
-1395
-1396
-1397
-1397
-1397
-1398
-1399
-1401
-1402
-1405
-1407
-1409
-1410
-1409
-1410
-1411
-1411
-1411
-1412
-1414
-1414
-1415
-1415
-1415
-1414
-1414
-1414
-1415
-1416
-1418
-1418
-1416
-1415
-1414
-1414
-1415
-1415
-1416
-1416
-1417
-1420
-1424
-1428
-1435
-1443
-1450
-1456
-1462
-1462
-1453
-1438
-1417
-1391
-1351
-1300
-1240
-1177
-1117
-1061
-1003
-946
-896
-856
-820
-794
-780
-789
-825
-875
-932
-1007
-1091
-1175
-1257
-1332
-1395
-1423
-1432
-1436
-1434
-1430
-1423
-1417
-1410
-1402
-1395
-1390
-1387
-1385
-1384
-1384
-1385
-1386
-1385
-1384
-1384
-1385
-1385
-1384
-1384
-1383
-1383
-1383
-1383
-1382
-1382
-1381
-1381
-1381
-1381
-1380
-1378
-1377
-1375
-1374
-1373
-1374
-1373
-1372
-1372
-1372
-1370
-1369
-1367
-1366
-1364
-1364
-1364
-1363
-1361
-1362
-1360
-1358
-1356
-1354
-1352
-1350
-1350
-1349
-1348
-1347
-1345
-1343
-1341
-1339
-1338
-1336
-1334
-1332
-1331
-1330
-1326
-1323
-1320
-1317
-1314
-1312
-1311
-1307
-1305
-1302
-1299
-1295
-1290
-1286
-1284
-1281
-1279
-1276
-1273
-1269
-1266
-1264
-1260
-1256
-1253
-1250
-1249
-1248
-1246
-1244
-1242
-1239
-1237
-1235
-1234
-1234
-1234
-1233
-1233
-1234
-1235
-1236
-1237
-1239
-1242
-1246
-1251
-1256
-1262
-1266
-1272
-1278
-1283
-1289
-1295
-1301
-1308
-1314
-1321
-1327
-1331
-1336
-1340
-1346
-1349
-1354
-1358
-1362
-1366
-1369
-1372
-1375
-1378
-1379
-1380
-1383
-1384
-1385
-1387
-1389
-1389
-1389
-1390
-1390
-1390
-1392
-1392
-1393
-1394
-1394
-1394
-1393
-1392
-1392
-1392
-1393
-1394
-1394
-1394
-1395
-1395
-1394
-1394
-1393
-1394
-1395
-1394
-1394
-1393
-1393
-1393
-1392
-1392
-1391
-1391
-1392
-1392
-1392
-1392
-1391
-1390
-1389
-1388
-1389
-1390
-1391
-1391
-1390
-1390
-1389
-1389
-1389
-1389
-1389
-1388
-1389
-1390
-1390
-1390
-1390
-1390
-1390
-1389
-1389
-1389
-1390
-1390
-1391
-1392
-1392
-1392
-1392
-1391
-1390
-1392
-1393
-1394
-1395
-1395
-1395
-1395
-1394
-1393
-1394
-1395
-1396
-1396
-1397
-1397
-1397
-1396
-1396
-1394
-1395
-1395
-1396
-1396
-1398
-1398
-1399
-1400
-1399
-1399
-1399
-1399
-1399
-1400
-1400
-1400
-1400
-1400
-1399
-1399
-1399
-1399
-1399
-1399
-1400
-1400
-1400
-1400
-1400
-1400
-1401
-1401
-1401
-1401
-1402
-1402
-1401
-1400
-1400
-1399
-1400
-1399
-1400
-1401
-1401
-1402
-1401
-1402
-1401
-1401
-1400
-1400
-1401
-1401
-1402
-1402
-1401
-1401
-1401
-1400
-1400
-1400
-1400
-1402
-1403
-1403
-1403
-1402
-1401
-1400
-1400
-1401
-1401
-1401
-1401
-1401
-1402
-1401
-1401
-1400
-1400
-1401
-1401
-1401
-1401
-1402
-1402
-1402
-1401
-1401
-1402
-1401
-1400
-1401
-1401
-1401
-1401
-1401
-1400
-1400
-1400
-1400
-1400
-1401
-1402
-1403
-1403
-1401
-1400
-1400
-1400
-1401
-1401
-1402
-1402
-1402
-1400
-1398
-1398
-1399
-1399
-1398
-1399
-1399
-1397
-1396
-1396
-1395
-1392
-1390
-1389
-1388
-1389
-1390
-1390
-1389
-1389
-1388
-1386
-1382
-1379
-1377
-1377
-1376
-1377
-1379
-1382
-1383
-1384
-1385
-1386
-1388
-1389
-1391
-1393
-1393
-1394
-1396
-1397
-1398
-1400
-1402
-1404
-1404
-1404
-1404
-1405
-1405
-1404
-1404
-1404
-1405
-1406
-1406
-1407
-1407
-1406
-1405
-1406
-1405
-1406
-1407
-1407
-1407
-1407
-1408
-1408
-1408
-1408
-1410
-1412
-1416
-1423
-1431
-1438
-1443
-1448
-1449
-1443
-1430
-1411
-1389
-1355
-1310
-1254
-1192
-1131
-1074
-1018
-965
-917
-877
-841
-813
-794
-791
-819
-863
-913
-980
-1059
-1144
-1229
-1307
-1377
-1413
-1425
-1432
-1436
-1432
-1427
-1419
-1413
-1406
-1397
-1391
-1386
-1381
-1379
-1377
-1377
-1377
-1378
-1379
-1380
-1380
-1379
-1378
-1376
-1375
-1375
-1375
-1374
-1374
-1375
-1377
-1376
-1374
-1373
-1371
-1371
-1371
-1370
-1370
-1370
-1369
-1368
-1366
-1364
-1363
-1362
-1362
-1362
-1361
-1360
-1358
-1358
-1356
-1355
-1354
-1352
-1351
-1350
-1349
-1348
-1347
-1345
-1343
-1341
-1339
-1338
-1337
-1336
-1335
-1333
-1330
-1329
-1326
-1323
-1322
-1320
-1319
-1317
-1314
-1312
-1309
-1306
-1303
-1300
-1297
-1295
-1292
-1288
-1286
-1283
-1279
-1275
-1272
-1268
-1264
-1261
-1259
-1259
-1258
-1256
-1254
-1250
-1246
-1242
-1240
-1239
-1238
-1236
-1236
-1235
-1233
-1232
-1231
-1231
-1231
-1232
-1233
-1236
-1239
-1240
-1243
-1247
-1250
-1255
-1259
-1265
-1271
-1277
-1282
-1289
-1295
-1301
-1306
-1310
-1315
-1322
-1327
-1333
-1338
-1343
-1347
-1350
-1353
-1356
-1359
-1363
-1365
-1367
-1370
-1373
-1375
-1375
-1375
-1376
-1377
-1379
-1381
-1382
-1383
-1383
-1384
-1384
-1384
-1384
-1384
-1385
-1386
-1385
-1386
-1387
-1387
-1387
-1386
-1386
-1387
-1388
-1388
-1388
-1388
-1388
-1386
-1385
-1385
-1385
-1385
-1386
-1385
-1386
-1387
-1386
-1386
-1385
-1384
-1383
-1383
-1383
-1383
-1383
-1383
-1383
-1383
-1382
-1381
-1381
-1382
-1384
-1384
-1385
-1384
-1384
-1384
-1383
-1382
-1382
-1383
-1384
-1385
-1385
-1384
-1384
-1384
-1383
-1384
-1384
-1385
-1386
-1387
-1388
-1389
-1389
-1388
-1387
-1386
-1387
-1387
-1387
-1388
-1390
-1390
-1391
-1391
-1391
-1391
-1391
-1390
-1391
-1391
-1392
-1393
-1394
-1395
-1395
-1393
-1394
-1394
-1395
-1395
-1396
-1397
-1397
-1396
-1395
-1393
-1393
-1395
-1396
-1397
-1398
-1398
-1398
-1398
-1398
-1397
-1397
-1396
-1396
-1397
-1398
-1399
-1399
-1399
-1398
-1397
-1397
-1397
-1398
-1399
-1399
-1399
-1399
-1399
-1398
-1397
-1397
-1398
-1398
-1399
-1400
-1400
-1400
-1399
-1397
-1397
-1397
-1398
-1400
-1401
-1401
-1401
-1400
-1400
-1399
-1399
-1399
-1399
-1400
-1400
-1401
-1401
-1400
-1400
-1399
-1399
-1399
-1399
-1401
-1402
-1402
-1401
-1401
-1401
-1399
-1398
-1398
-1398
-1399
-1400
-1399
-1398
-1397
-1396
-1395
-1394
-1392
-1391
-1390
-1390
-1390
-1389
-1389
-1388
-1387
-1386
-1385
-1383
-1381
-1378
-1378
-1377
-1376
-1377
-1378
-1380
-1382
-1384
-1386
-1387
-1390
-1393
-1393
-1393
-1392
-1393
-1395
-1397
-1400
-1402
-1404
-1405
-1406
-1405
-1404
-1404
-1405
-1406
-1407
-1407
-1408
-1408
-1408
-1407
-1408
-1407
-1406
-1408
-1409
-1409
-1409
-1409
-1409
-1409
-1408
-1406
-1406
-1408
-1411
-1415
-1421
-1427
-1433
-1439
-1445
-1449
-1449
-1442
-1428
-1408
-1383
-1346
-1295
-1238
-1176
-1115
-1060
-1006
-953
-910
-871
-836
-811
-793
-796
-823
-868
-922
-994
-1075
-1162
-1248
-1326
-1388
-1413
-1421
-1427
-1433
-1431
-1426
-1420
-1415
-1408
-1398
-1391
-1385
-1381
-1379
-1378
-1379
-1380
-1379
-1379
-1379
-1379
-1378
-1378
-1379
-1379
-1380
-1379
-1379
-1377
-1375
-1375
-1375
-1374
-1374
-1373
-1372
-1372
-1372
-1370
-1369
-1368
-1367
-1367
-1366
-1366
-1365
-1363
-1363
-1361
-1360
-1358
-1356
-1356
-1356
-1355
-1354
-1353
-1352
-1351
-1349
-1347
-1344
-1342
-1340
-1341
-1340
-1339
-1339
-1338
-1335
-1332
-1330
-1328
-1325
-1324
-1323
-1320
-1318
-1315
-1312
-1308
-1305
-1303
-1301
-1298
-1295
-1293
-1290
-1287
-1282
-1278
-1276
-1273
-1270
-1267
-1265
-1262
-1260
-1256
-1252
-1249
-1247
-1246
-1244
-1243
-1243
-1242
-1241
-1239
-1237
-1235
-1234
-1233
-1233
-1235
-1237
-1239
-1242
-1244
-1247
-1249
-1253
-1259
-1265
-1271
-1277
-1283
-1287
-1293
-1298
-1303
-1309
-1315
-1321
-1327
-1332
-1338
-1343
-1347
-1350
-1353
-1356
-1361
-1364
-1368
-1370
-1373
-1374
-1375
-1377
-1378
-1379
-1380
-1383
-1385
-1385
-1386
-1386
-1387
-1388
-1387
-1387
-1389
-1389
-1390
-1390
-1390
-1391
-1390
-1389
-1388
-1389
-1390
-1391
-1392
-1392
-1392
-1390
-1389
-1387
-1387
-1386
-1387
-1389
-1390
-1390
-1391
-1390
-1390
-1389
-1388
-1387
-1388
-1388
-1388
-1387
-1387
-1388
-1388
-1387
-1387
-1387
-1386
-1386
-1386
-1386
-1386
-1387
-1386
-1385
-1385
-1386
-1387
-1386
-1387
-1387
-1387
-1388
-1388
-1389
-1388
-1389
-1389
-1389
-1390
-1390
-1391
-1391
-1391
-1390
-1390
-1391
-1392
-1392
-1392
-1392
-1392
-1392
-1393
-1393
-1392
-1393
-1394
-1395
-1396
-1396
-1396
-1396
-1396
-1395
-1395
-1395
-1396
-1397
-1398
-1398
-1398
-1397
-1397
-1397
-1398
-1398
-1399
-1400
-1400
-1400
-1399
-1399
-1397
-1397
-1398
-1399
-1401
-1402
-1403
-1402
-1402
-1402
-1401
-1400
-1400
-1400
-1400
-1400
-1401
-1402
-1402
-1401
-1400
-1400
-1399
-1400
-1400
-1401
-1402
-1402
-1402
-1402
-1401
-1400
-1400
-1400
-1402
-1402
-1403
-1403
-1403
-1403
-1402
-1402
-1402
-1401
-1402
-1402
-1403
-1403
-1403
-1402
-1403
-1402
-1401
-1401
-1402
-1402
-1402
-1401
-1400
-1401
-1401
-1402
-1402
-1402
-1403
-1403
-1404
-1404
-1404
-1403
-1403
-1402
-1402
-1403
-1403
-1404
-1404
-1403
-1403
-1403
-1401
-1401
-1401
-1401
-1402
-1402
-1402
-1402
-1403
-1402
-1402
-1401
-1401
-1401
-1402
-1402
-1403
-1403
-1402
-1401
-1401
-1401
-1401
-1401
-1401
-1402
-1402
-1400
-1398
-1397
-1396
-1394
-1394
-1394
-1394
-1394
-1392
-1391
-1391
-1389
-1389
-1388
-1387
-1387
-1388
-1388
-1385
-1382
-1378
-1376
-1374
-1375
-1378
-1380
-1383
-1384
-1386
-1388
-1389
-1390
-1390
-1390
-1392
-1393
-1394
-1397
-1399
-1401
-1402
-1402
-1401
-1400
-1401
-1403
-1405
-1406
-1405
-1406
-1406
-1406
-1405
-1405
-1406
-1406
-1406
-1408
-1407
-1407
-1406
-1405
-1404
-1404
-1405
-1406
-1406
-1408
-1409
-1413
-1418
-1425
-1433
-1441
-1446
-1452
-1452
-1445
-1430
-1410
-1384
-1347
-1295
-1236
-1173
-1111
-1055
-999
-944
-895
-854
-818
-790
-773
-782
-820
-867
-923
-995
-1077
-1160
-1244
-1322
-1387
-1416
-1428
-1433
-1431
-1426
-1420
-1412
-1405
-1395
-1388
-1383
-1379
-1377
-1376
-1375
-1376
-1375
-1375
-1374
-1374
-1375
-1376
-1377
-1376
-1376
-1376
-1375
-1374
-1374
-1373
-1373
-1372
-1372
-1372
-1371
-1371
-1369
-1368
-1367
-1366
-1365
-1364
-1364
-1364
-1363
-1362
-1360
-1358
-1356
-1355
-1355
-1355
-1354
-1354
-1354
-1353
-1351
-1349
-1346
-1345
-1344
-1343
-1342
-1341
-1339
-1337
-1335
-1333
-1331
-1330
-1329
-1328
-1326
-1324
-1321
-1320
-1317
-1313
-1310
-1308
-1306
-1303
-1301
-1300
-1297
-1294
-1290
-1286
-1282
-1279
-1275
-1273
-1271
-1268
-1265
-1262
-1260
-1256
-1253
-1250
-1248
-1247
-1245
-1243
-1240
-1238
-1235
-1234
-1232
-1230
-1229
-1230
-1229
-1228
-1229
-1229
-1230
-1230
-1232
-1235
-1238
-1242
-1246
-1251
-1256
-1262
-1267
-1272
-1278
-1282
-1288
-1294
-1301
-1308
-1315
-1321
-1325
-1330
-1333
-1338
-1342
-1347
-1351
-1355
-1359
-1362
-1363
-1365
-1367
-1368
-1370
-1372
-1373
-1375
-1376
-1378
-1379
-1379
-1379
-1381
-1382
-1382
-1383
-1382
-1382
-1382
-1381
-1380
-1380
-1380
-1381
-1382
-1384
-1385
-1385
-1386
-1386
-1385
-1384
-1384
-1384
-1383
-1383
-1383
-1383
-1383
-1383
-1383
-1382
-1381
-1382
-1383
-1383
-1383
-1382
-1382
-1381
-1380
-1380
-1380
-1381
-1381
-1381
-1381
-1382
-1381
-1380
-1379
-1379
-1379
-1380
-1381
-1382
-1383
-1383
-1383
-1383
-1383
-1382
-1383
-1384
-1382
-1383
-1384
-1383
-1384
-1384
-1384
-1383
-1383
-1384
-1385
-1387
-1388
-1387
-1388
-1389
-1388
-1387
-1388
-1389
-1390
-1390
-1390
-1391
-1390
-1390
-1390
-1390
-1391
-1392
-1391
-1391
-1390
-1391
-1391
-1392
-1394
-1394
-1394
-1394
-1395
-1396
-1395
-1394
-1394
-1394
-1394
-1394
-1394
-1394
-1395
-1396
-1396
-1396
-1397
-1396
-1395
-1395
-1395
-1395
-1396
-1396
-1396
-1396
-1396
-1396
-1397
-1397
-1397
-1396
-1396
-1398
-1398
-1398
-1398
-1397
-1396
-1395
-1395
-1396
-1397
-1398
-1398
-1399
-1399
-1398
-1397
-1398
-1397
-1396
-1396
-1398
-1399
-1400
-1400
-1400
-1399
-1399
-1399
-1399
-1400
-1400
-1401
-1401
-1400
-1400
-1398
-1398
-1398
-1399
-1399
-1400
-1400
-1398
-1398
-1397
-1397
-1398
-1398
-1399
-1400
-1401
-1401
-1400
-1398
-1398
-1399
-1398
-1399
-1399
-1399
-1399
-1399
-1398
-1398
-1398
-1397
-1396
-1396
-1396
-1396
-1395
-1395
-1393
-1391
-1390
-1388
-1388
-1388
-1388
-1388
-1388
-1387
-1386
-1383
-1379
-1375
-1373
-1372
-1374
-1377
-1380
-1382
-1384
-1385
-1387
-1388
-1389
-1390
-1392
-1393
-1394
-1396
-1398
-1399
-1399
-1401
-1402
-1402
-1403
-1403
-1404
-1405
-1405
-1405
-1405
-1404
-1404
-1405
-1406
-1407
-1408
-1408
-1407
-1407
-1406
-1406
-1405
-1405
-1406
-1407
-1407
-1406
-1407
-1408
-1411
-1416
-1423
-1430
-1437
-1444
-1449
-1450
-1441
-1426
-1407
-1383
-1346
-1298
-1243
-1185
-1126
-1070
-1017
-964
-919
-882
-847
-822
-803
-801
-826
-867
-919
-986
-1066
-1149
-1235
-1312
-1378
-1407
-1418
-1426
-1434
-1434
-1429
-1423
-1416
-1409
-1400
-1392
-1387
-1383
-1380
-1378
-1378
-1379
-1379
-1381
-1381
-1381
-1381
-1381
-1379
-1378
-1378
-1377
-1377
-1377
-1377
-1377
-1376
-1375
-1375
-1373
-1372
-1370
-1370
-1368
-1369
-1370
-1369
-1368
-1366
-1364
-1362
-1361
-1361
-1360
-1361
-1360
-1359
-1358
-1356
-1355
-1353
-1352
-1350
-1350
-1349
-1349
-1348
-1346
-1344
-1342
-1340
-1337
-1336
-1335
-1334
-1333
-1331
-1329
-1326
-1324
-1321
-1318
-1317
-1314
-1313
-1311
-1309
-1306
-1304
-1301
-1297
-1294
-1291
-1287
-1284
-1281
-1279
-1276
-1273
-1270
-1266
-1264
-1261
-1258
-1257
-1255
-1253
-1250
-1247
-1245
-1244
-1242
-1240
-1238
-1238
-1237
-1236
-1237
-1237
-1237
-1237
-1238
-1239
-1242
-1245
-1248
-1252
-1256
-1261
-1265
-1270
-1275
-1281
-1288
-1294
-1299
-1305
-1312
-1316
-1322
-1327
-1332
-1338
-1343
-1348
-1352
-1355
-1358
-1361
-1363
-1366
-1369
-1372
-1374
-1375
-1377
-1379
-1380
-1380
-1381
-1382
-1383
-1384
-1386
-1387
-1388
-1388
-1388
-1387
-1387
-1387
-1387
-1388
-1389
-1389
-1389
-1389
-1390
-1390
-1388
-1388
-1387
-1388
-1387
-1388
-1389
-1389
-1387
-1386
-1385
-1385
-1387
-1387
-1387
-1388
-1388
-1387
-1386
-1386
-1386
-1385
-1384
-1384
-1384
-1385
-1385
-1386
-1386
-1384
-1383
-1382
-1382
-1383
-1384
-1385
-1386
-1386
-1386
-1387
-1387
-1386
-1386
-1386
-1386
-1387
-1388
-1388
-1387
-1388
-1388
-1388
-1389
-1389
-1389
-1389
-1389
-1390
-1390
-1391
-1393
-1392
-1392
-1393
-1394
-1393
-1394
-1395
-1394
-1394
-1394
-1394
-1394
-1394
-1394
-1395
-1396
-1396
-1396
-1397
-1396
-1395
-1396
-1397
-1398
-1399
-1400
-1400
-1401
-1401
-1400
-1400
-1399
-1399
-1400
-1400
-1401
-1400
-1400
-1401
-1400
-1399
-1399
-1400
-1402
-1402
-1402
-1402
-1402
-1401
-1400
-1400
-1400
-1401
-1402
-1402
-1403
-1403
-1404
-1404
-1403
-1402
-1401
-1402
-1402
-1402
-1402
-1403
-1403
-1403
-1402
-1401
-1401
-1401
-1403
-1404
-1403
-1402
-1402
-1402
-1402
-1402
-1403
-1404
-1403
-1404
-1404
-1404
-1404
-1403
-1403
-1403
-1404
-1404
-1404
-1404
-1404
-1405
-1404
-1404
-1404
-1404
-1404
-1403
-1403
-1404
-1404
-1404
-1404
-1404
-1404
-1404
-1403
-1402
-1402
-1403
-1404
-1405
-1405
-1405
-1403
-1403
-1404
-1404
-1404
-1403
-1403
-1404
-1404
-1405
-1404
-1404
-1404
-1405
-1405
-1406
-1406
-1406
-1405
-1404
-1403
-1403
-1403
-1404
-1403
-1404
-1405
-1404
-1404
-1403
-1402
-1402
-1400
-1400
-1400
-1400
-1400
-1399
-1397
-1394
-1391
-1390
-1390
-1391
-1393
-1393
-1393
-1392
-1392
-1389
-1386
-1383
-1380
-1379
-1379
-1381
-1384
-1387
-1388
-1388
-1389
-1390
-1392
-1394
-1395
-1396
-1397
-1398
-1400
-1402
-1403
-1404
-1406
-1407
-1408
-1409
-1410
-1410
-1410
-1409
-1409
-1409
-1409
-1410
-1411
-1411
-1411
-1411
-1411
-1411
-1411
-1411
-1410
-1410
-1412
-1412
-1413
-1413
-1414
-1415
-1417
-1421
-1427
-1435
-1442
-1449
-1454
-1458
-1454
-1443
-1425
-1405
-1377
-1334
-1280
-1219
-1155
-1094
-1035
-977
-921
-875
-837
-806
-784
-776
-796
-837
-886
-948
-1024
-1110
-1194
-1276
-1350
-1404
-1423
-1430
-1430
-1425
-1421
-1414
-1409
-1402
-1394
-1389
-1385
-1382
-1380
-1378
-1378
-1379
-1380
-1382
-1382
-1383
-1382
-1383
-1382
-1381
-1380
-1379
-1378
-1377
-1377
-1378
-1378
-1377
-1377
-1376
-1374
-1373
-1373
-1373
-1372
-1372
-1371
-1370
-1367
-1364
-1362
-1361
-1361
-1361
-1362
-1362
-1362
-1361
-1358
-1356
-1354
-1353
-1352
-1351
-1349
-1349
-1347
-1346
-1346
-1343
-1341
-1339
-1338
-1336
-1334
-1332
-1331
-1330
-1327
-1324
-1322
-1319
-1317
-1316
-1314
-1311
-1308
-1305
-1300
-1296
-1294
-1291
-1289
-1287
-1284
-1281
-1277
-1273
-1270
-1266
-1262
-1259
-1256
-1254
-1252
-1249
-1247
-1244
-1242
-1239
-1236
-1235
-1233
-1232
-1231
-1230
-1228
-1227
-1226
-1225
-1225
-1225
-1226
-1227
-1229
-1233
-1237
-1240
-1243
-1247
-1253
-1259
-1265
-1272
-1279
-1284
-1289
-1295
-1301
-1306
-1311
-1317
-1324
-1330
-1334
-1339
-1343
-1346
-1348
-1351
-1355
-1357
-1360
-1363
-1368
-1370
-1372
-1374
-1375
-1376
-1376
-1377
-1378
-1379
-1380
-1380
-1381
-1381
-1381
-1381
-1381
-1381
-1381
-1381
-1381
-1382
-1383
-1382
-1382
-1382
-1381
-1382
-1383
-1383
-1382
-1383
-1383
-1382
-1382
-1381
-1380
-1380
-1381
-1381
-1381
-1381
-1381
-1381
-1380
-1380
-1379
-1378
-1378
-1378
-1379
-1380
-1380
-1379
-1378
-1378
-1377
-1378
-1379
-1381
-1381
-1381
-1380
-1379
-1379
-1379
-1379
-1380
-1380
-1381
-1382
-1382
-1383
-1383
-1381
-1381
-1380
-1379
-1379
-1381
-1383
-1385
-1385
-1384
-1383
-1383
-1383
-1384
-1385
-1386
-1387
-1388
-1387
-1387
-1387
-1387
-1387
-1387
-1387
-1388
-1388
-1388
-1387
-1388
-1388
-1389
-1389
-1390
-1390
-1392
-1393
-1394
-1393
-1392
-1392
-1392
-1392
-1392
-1392
-1392
-1392
-1393
-1394
-1394
-1393
-1393
-1393
-1393
-1394
-1394
-1394
-1394
-1394
-1393
-1392
-1393
-1393
-1394
-1395
-1396
-1396
-1396
-1396
-1395
-1394
-1392
-1393
-1393
-1394
-1395
-1396
-1397
-1397
-1396
-1396
-1396
-1395
-1395
-1395
-1395
-1395
-1397
-1397
-1396
-1395
-1395
-1397
-1397
-1397
-1397
-1397
-1397
-1397
-1396
-1395
-1396
-1396
-1396
-1396
-1396
-1396
-1397
-1397
-1397
-1397
-1396
-1396
-1397
-1398
-1398
-1399
-1399
-1398
-1397
-1396
-1396
-1396
-1396
-1398
-1398
-1399
-1399
-1399
-1398
-1397
-1397
-1397
-1397
-1397
-1398
-1398
-1397
-1396
-1396
-1395
-1394
-1395
-1397
-1397
-1397
-1398
-1399
-1398
-1397
-1396
-1397
-1396
-1398
-1399
-1399
-1399
-1398
-1397
-1396
-1394
-1393
-1392
-1392
-1392
-1392
-1393
-1392
-1390
-1388
-1387
-1386
-1387
-1387
-1387
-1386
-1385
-1384
-1381
-1376
-1373
-1372
-1371
-1372
-1375
-1378
-1381
-1383
-1385
-1386
-1386
-1386
-1387
-1388
-1389
-1391
-1393
-1396
-1398
-1399
-1399
-1399
-1399
-1399
-1401
-1402
-1403
-1403
-1404
-1404
-1404
-1404
-1403
-1403
-1403
-1404
-1405
-1405
-1405
-1405
-1404
-1403
-1403
-1404
-1405
-1405
-1405
-1406
-1408
-1409
-1414
-1421
-1429
-1435
-1440
-1445
-1444
-1436
-1420
-1399
-1370
-1330
-1280
-1224
-1165
-1107
-1054
-1000
-950
-908
-871
-839
-817
-800
-806
-838
-883
-936
-1008
-1089
-1173
-1255
-1329
-1387
-1410
-1420
-1429
-1435
-1433
-1426
-1418
-1411
-1404
-1394
-1388
-1385
-1382
-1379
-1376
-1374
-1374
-1375
-1376
-1376
-1375
-1376
-1376
-1375
-1375
-1374
-1373
-1372
-1371
-1371
-1370
-1369
-1369
-1369
-1369
-1368
-1366
-1365
-1364
-1365
-1365
-1364
-1362
-1362
-1360
-1359
-1357
-1356
-1355
-1355
-1355
-1354
-1353
-1351
-1349
-1348
-1346
-1345
-1344
-1344
-1343
-1341
-1339
-1337
-1334
-1333
-1332
-1330
-1329
-1329
-1328
-1326
-1325
-1324
-1322
-1319
-1316
-1313
-1310
-1308
-1305
-1303
-1302
-1300
-1296
-1293
-1290
-1286
-1283
-1280
-1276
-1274
-1272
-1269
-1267
-1263
-1260
-1257
-1255
-1253
-1251
-1248
-1246
-1244
-1242
-1240
-1238
-1236
-1235
-1234
-1233
-1233
-1233
-1231
-1230
-1229
-1229
-1231
-1234
-1238
-1241
-1245
-1249
-1253
-1257
-1261
-1266
-1272
-1278
-1284
-1290
-1296
-1301
-1306
-1312
-1316
-1321
-1326
-1330
-1335
-1340
-1345
-1349
-1352
-1355
-1358
-1361
-1363
-1365
-1366
-1368
-1371
-1372
-1373
-1374
-1374
-1375
-1375
-1377
-1378
-1379
-1381
-1381
-1380
-1379
-1378
-1377
-1377
-1378
-1379
-1381
-1382
-1382
-1382
-1381
-1381
-1380
-1379
-1380
-1380
-1380
-1380
-1380
-1379
-1379
-1378
-1378
-1378
-1378
-1379
-1379
-1379
-1379
-1378
-1378
-1378
-1377
-1376
-1376
-1377
-1377
-1378
-1377
-1377
-1376
-1375
-1376
-1376
-1376
-1377
-1377
-1379
-1380
-1379
-1379
-1378
-1377
-1378
-1379
-1380
-1381
-1381
-1381
-1381
-1380
-1381
-1381
-1381
-1382
-1383
-1384
-1384
-1384
-1384
-1382
-1382
-1382
-1382
-1384
-1386
-1387
-1387
-1388
-1387
-1387
-1387
-1387
-1387
-1387
-1389
-1390
-1390
-1390
-1390
-1389
-1390
-1389
-1389
-1390
-1391
-1391
-1391
-1391
-1392
-1391
-1391
-1391
-1392
-1392
-1393
-1393
-1393
-1393
-1394
-1394
-1393
-1394
-1393
-1394
-1394
-1394
-1395
-1395
-1395
-1394
-1394
-1393
-1393
-1393
-1393
-1393
-1394
-1395
-1395
-1395
-1395
-1395
-1394
-1395
-1396
-1396
-1396
-1396
-1395
-1395
-1395
-1395
-1394
-1395
-1395
-1396
-1396
-1396
-1396
-1396
-1394
-1394
-1395
-1395
-1396
-1396
-1396
-1396
-1396
-1396
-1396
-1396
-1396
-1397
-1397
-1397
-1398
-1397
-1397
-1397
-1396
-1396
-1397
-1397
-1398
-1398
-1398
-1397
-1396
-1396
-1395
-1395
-1395
-1396
-1398
-1399
-1399
-1398
-1397
-1398
-1397
-1397
-1396
-1397
-1398
-1399
-1399
-1399
-1399
-1397
-1396
-1397
-1397
-1397
-1397
-1398
-1397
-1397
-1397
-1397
-1397
-1397
-1397
-1397
-1396
-1395
-1394
-1393
-1392
-1391
-1390
-1388
-1386
-1386
-1386
-1386
-1387
-1387
-1387
-1385
-1383
-1382
-1381
-1379
-1376
-1374
-1373
-1373
-1375
-1377
-1378
-1380
-1382
-1385
-1386
-1387
-1389
-1389
-1388
-1388
-1390
-1391
-1394
-1397
-1400
-1401
-1402
-1402
-1402
-1402
-1402
-1402
-1402
-1402
-1403
-1404
-1404
-1405
-1406
-1406
-1405
-1405
-1405
-1405
-1404
-1404
-1405
-1405
-1405
-1406
-1406
-1407
-1410
-1413
-1419
-1425
-1432
-1440
-1446
-1450
-1450
-1445
-1433
-1414
-1392
-1360
-1312
-1254
-1192
-1128
-1069
-1011
-955
-903
-861
-825
-796
-774
-771
-797
-841
-892
-960
-1043
-1129
-1214
-1293
-1364
-1405
-1417
-1422
-1421
-1418
-1413
-1407
-1402
-1394
-1387
-1381
-1377
-1374
-1374
-1374
-1374
-1375
-1376
-1377
-1376
-1376
-1376
-1375
-1375
-1375
-1375
-1375
-1375
-1375
-1374
-1373
-1372
-1370
-1370
-1369
-1369
-1369
-1368
-1368
-1367
-1366
-1364
-1363
-1362
-1361
-1361
-1360
-1358
-1358
-1357
-1355
-1353
-1352
-1352
-1351
-1351
-1349
-1348
-1346
-1346
-1344
-1341
-1339
-1338
-1337
-1336
-1335
-1334
-1332
-1330
-1327
-1324
-1321
-1320
-1319
-1317
-1316
-1315
-1312
-1310
-1308
-1303
-1300
-1297
-1296
-1294
-1290
-1288
-1285
-1281
-1277
-1272
-1268
-1265
-1263
-1261
-1259
-1256
-1252
-1249
-1246
-1242
-1240
-1238
-1237
-1236
-1235
-1233
-1231
-1229
-1228
-1227
-1226
-1224
-1224
-1224
-1226
-1227
-1228
-1230
-1231
-1235
-1239
-1244
-1249
-1254
-1261
-1266
-1272
-1277
-1281
-1286
-1292
-1299
-1306
-1313
-1319
-1324
-1330
-1334
-1337
-1341
-1346
-1350
-1353
-1357
-1361
-1363
-1366
-1367
-1368
-1370
-1371
-1373
-1374
-1376
-1377
-1378
-1379
-1379
-1379
-1379
-1379
-1380
-1381
-1382
-1382
-1382
-1382
-1381
-1380
-1380
-1379
-1380
-1381
-1382
-1382
-1383
-1383
-1383
-1382
-1382
-1381
-1381
-1381
-1381
-1381
-1381
-1380
-1379
-1378
-1379
-1379
-1379
-1379
-1379
-1379
-1378
-1377
-1377
-1377
-1377
-1377
-1377
-1377
-1377
-1378
-1378
-1378
-1377
-1376
-1376
-1376
-1376
-1377
-1378
-1379
-1380
-1379
-1379
-1378
-1378
-1378
-1378
-1379
-1380
-1381
-1381
-1381
-1381
-1381
-1381
-1381
-1383
-1383
-1383
-1383
-1383
-1383
-1383
-1383
-1383
-1383
-1384
-1384
-1385
-1386
-1386
-1386
-1385
-1384
-1384
-1385
-1387
-1388
-1388
-1387
-1387
-1386
-1386
-1386
-1387
-1387
-1387
-1388
-1388
-1389
-1389
-1389
-1388
-1388
-1389
-1389
-1388
-1388
-1389
-1390
-1390
-1390
-1390
-1388
-1388
-1388
-1389
-1389
-1389
-1389
-1390
-1389
-1389
-1389
-1389
-1388
-1389
-1390
-1390
-1390
-1390
-1389
-1389
-1389
-1390
-1391
-1391
-1391
-1391
-1392
-1392
-1392
-1391
-1390
-1389
-1389
-1389
-1389
-1390
-1390
-1391
-1391
-1390
-1390
-1391
-1390
-1391
-1391
-1391
-1392
-1392
-1391
-1391
-1390
-1391
-1389
-1390
-1391
-1392
-1392
-1392
-1391
-1390
-1390
-1389
-1389
-1390
-1392
-1392
-1392
-1392
-1392
-1391
-1390
-1390
-1390
-1390
-1391
-1392
-1393
-1392
-1393
-1392
-1392
-1391
-1390
-1390
-1390
-1392
-1392
-1392
-1392
-1392
-1392
-1391
-1391
-1392
-1392
-1392
-1393
-1392
-1392
-1391
-1391
-1391
-1391
-1391
-1392
-1393
-1393
-1393
-1391
-1390
-1389
-1389
-1390
-1391
-1390
-1389
-1389
-1388
-1387
-1386
-1386
-1385
-1383
-1382
-1383
-1383
-1383
-1383
-1382
-1382
-1381
-1379
-1377
-1374
-1371
-1369
-1367
-1366
-1368
-1370
-1372
-1374
-1376
-1379
-1380
-1381
-1382
-1384
-1385
-1385
-1387
-1388
-1390
-1393
-1394
-1395
-1396
-1396
-1396
-1395
-1395
-1396
-1396
-1396
-1397
-1398
-1398
-1399
-1398
-1398
-1398
-1398
-1399
-1399
-1400
-1400
-1401
-1400
-1400
-1399
-1398
-1398
-1400
-1405
-1411
-1418
-1426
-1431
-1436
-1437
-1435
-1426
-1411
-1391
-1364
-1324
-1274
-1218
-1158
-1099
-1046
-994
-944
-904
-869
-837
-814
-797
-804
-836
-880
-934
-1008
-1089
-1174
-1256
-1329
-1386
-1408
-1415
-1424
-1430
-1427
-1422
-1415
-1408
-1399
-1390
-1383
-1378
-1375
-1372
-1370
-1370
-1371
-1372
-1373
-1373
-1371
-1371
-1371
-1369
-1369
-1369
-1369
-1369
-1369
-1368
-1367
-1365
-1364
-1364
-1364
-1364
-1363
-1362
-1362
-1362
-1361
-1360
-1358
-1357
-1357
-1356
-1355
-1354
-1353
-1352
-1351
-1349
-1348
-1347
-1346
-1346
-1345
-1344
-1343
-1341
-1339
-1337
-1334
-1333
-1332
-1331
-1330
-1329
-1327
-1324
-1323
-1323
-1320
-1319
-1317
-1316
-1314
-1312
-1310
-1307
-1303
-1300
-1297
-1294
-1291
-1290
-1288
-1286
-1284
-1281
-1276
-1272
-1269
-1266
-1263
-1261
-1259
-1256
-1254
-1251
-1247
-1244
-1242
-1240
-1239
-1237
-1235
-1233
-1232
-1230
-1228
-1227
-1227
-1228
-1228
-1229
-1229
-1230
-1232
-1234
-1236
-1239
-1242
-1246
-1250
-1254
-1259
-1265
-1270
-1275
-1281
-1286
-1291
-1296
-1302
-1309
-1315
-1320
-1325
-1329
-1333
-1338
-1341
-1345
-1349
-1352
-1355
-1358
-1360
-1362
-1364
-1364
-1366
-1367
-1368
-1371
-1372
-1373
-1373
-1374
-1373
-1373
-1374
-1374
-1374
-1375
-1376
-1376
-1376
-1375
-1374
-1374
-1374
-1374
-1374
-1375
-1376
-1376
-1375
-1375
-1374
-1374
-1374
-1374
-1375
-1375
-1375
-1374
-1374
-1373
-1373
-1372
-1372
-1372
-1372
-1373
-1373
-1374
-1375
-1374
-1373
-1373
-1373
-1373
-1372
-1373
-1374
-1374
-1373
-1373
-1372
-1372
-1372
-1373
-1373
-1374
-1375
-1375
-1375
-1376
-1376
-1375
-1374
-1375
-1377
-1378
-1379
-1378
-1379
-1380
-1379
-1378
-1378
-1379
-1380
-1380
-1381
-1381
-1382
-1382
-1381
-1381
-1382
-1382
-1383
-1385
-1385
-1385
-1385
-1384
-1383
-1383
-1385
-1385
-1386
-1387
-1387
-1387
-1387
-1387
-1387
-1386
-1386
-1386
-1386
-1386
-1387
-1388
-1389
-1390
-1389
-1389
-1390
-1391
-1391
-1391
-1390
-1389
-1389
-1388
-1388
-1387
-1389
-1391
-1392
-1392
-1393
-1393
-1393
-1392
-1391
-1391
-1391
-1391
-1391
-1391
-1392
-1392
-1392
-1391
-1392
-1392
-1393
-1393
-1393
-1393
-1392
-1392
-1391
-1391
-1391
-1391
-1392
-1394
-1394
-1395
-1395
-1395
-1394
-1393
-1393
-1393
-1392
-1392
-1393
-1394
-1394
-1394
-1394
-1393
-1392
-1392
-1393
-1393
-1393
-1395
-1395
-1395
-1394
-1394
-1394
-1394
-1394
-1394
-1394
-1395
-1395
-1395
-1394
-1393
-1393
-1394
-1395
-1395
-1395
-1395
-1393
-1392
-1392
-1393
-1393
-1395
-1396
-1396
-1396
-1396
-1397
-1396
-1395
-1394
-1393
-1393
-1392
-1392
-1391
-1390
-1390
-1389
-1389
-1388
-1385
-1382
-1382
-1383
-1384
-1384
-1384
-1383
-1382
-1380
-1377
-1373
-1370
-1369
-1369
-1370
-1374
-1376
-1378
-1379
-1380
-1382
-1383
-1384
-1385
-1386
-1387
-1388
-1390
-1392
-1393
-1394
-1396
-1398
-1399
-1400
-1400
-1400
-1400
-1399
-1400
-1400
-1401
-1402
-1402
-1402
-1403
-1402
-1402
-1402
-1401
-1401
-1401
-1402
-1403
-1404
-1404
-1405
-1404
-1405
-1406
-1409
-1415
-1423
-1432
-1438
-1444
-1448
-1447
-1438
-1423
-1404
-1381
-1343
-1292
-1234
-1171
-1110
-1051
-993
-937
-887
-846
-813
-785
-768
-776
-809
-856
-911
-984
-1068
-1154
-1240
-1317
-1382
-1411
-1419
-1423
-1420
-1416
-1411
-1405
-1399
-1390
-1385
-1380
-1375
-1372
-1370
-1371
-1372
-1373
-1373
-1373
-1373
-1374
-1375
-1374
-1373
-1372
-1372
-1371
-1372
-1372
-1372
-1371
-1371
-1370
-1368
-1367
-1367
-1367
-1366
-1366
-1366
-1365
-1363
-1363
-1360
-1358
-1357
-1357
-1356
-1355
-1355
-1353
-1352
-1351
-1349
-1347
-1347
-1347
-1346
-1345
-1344
-1342
-1340
-1339
-1337
-1336
-1334
-1334
-1333
-1331
-1329
-1327
-1324
-1323
-1321
-1320
-1317
-1314
-1313
-1311
-1308
-1306
-1304
-1301
-1297
-1294
-1290
-1288
-1285
-1282
-1279
-1276
-1272
-1269
-1265
-1261
-1258
-1257
-1255
-1253
-1250
-1246
-1244
-1240
-1237
-1236
-1234
-1232
-1232
-1230
-1229
-1227
-1226
-1226
-1226
-1226
-1226
-1225
-1226
-1229
-1232
-1235
-1238
-1242
-1245
-1249
-1254
-1260
-1266
-1272
-1279
-1285
-1291
-1296
-1300
-1307
-1313
-1318
-1325
-1330
-1336
-1340
-1344
-1347
-1351
-1354
-1356
-1360
-1364
-1367
-1370
-1372
-1372
-1373
-1373
-1373
-1374
-1375
-1377
-1378
-1380
-1381
-1381
-1382
-1383
-1382
-1382
-1383
-1384
-1385
-1385
-1384
-1384
-1382
-1382
-1382
-1382
-1383
-1382
-1382
-1383
-1382
-1382
-1381
-1381
-1381
-1381
-1382
-1382
-1382
-1382
-1381
-1381
-1380
-1379
-1379
-1379
-1380
-1380
-1381
-1381
-1381
-1380
-1380
-1379
-1378
-1378
-1378
-1379
-1379
-1380
-1381
-1381
-1381
-1381
-1381
-1381
-1381
-1381
-1383
-1384
-1384
-1383
-1383
-1383
-1382
-1382
-1383
-1384
-1385
-1385
-1386
-1385
-1385
-1385
-1385
-1385
-1385
-1386
-1387
-1387
-1387
-1387
-1386
-1386
-1387
-1387
-1387
-1389
-1390
-1389
-1390
-1390
-1389
-1388
-1389
-1389
-1390
-1390
-1390
-1390
-1390
-1390
-1390
-1390
-1390
-1391
-1392
-1393
-1393
-1393
-1393
-1393
-1393
-1393
-1393
-1394
-1394
-1393
-1393
-1394
-1394
-1394
-1393
-1392
-1392
-1392
-1393
-1392
-1392
-1393
-1393
-1392
-1393
-1393
-1393
-1393
-1393
-1393
-1393
-1394
-1394
-1394
-1393
-1393
-1393
-1394
-1393
-1393
-1394
-1395
-1395
-1394
-1394
-1393
-1392
-1393
-1393
-1395
-1396
-1395
-1395
-1394
-1392
-1392
-1392
-1391
-1392
-1394
-1395
-1396
-1396
-1395
-1394
-1393
-1393
-1394
-1395
-1395
-1395
-1394
-1393
-1393
-1392
-1392
-1392
-1392
-1393
-1394
-1395
-1395
-1394
-1394
-1393
-1394
-1393
-1394
-1395
-1394
-1394
-1394
-1394
-1393
-1393
-1393
-1393
-1393
-1393
-1393
-1393
-1394
-1396
-1395
-1394
-1393
-1391
-1391
-1391
-1391
-1390
-1390
-1390
-1390
-1388
-1386
-1385
-1385
-1384
-1382
-1382
-1383
-1382
-1381
-1380
-1380
-1381
-1380
-1379
-1377
-1374
-1372
-1370
-1368
-1369
-1370
-1372
-1376
-1378
-1380
-1382
-1383
-1383
-1383
-1384
-1383
-1385
-1388
-1391
-1394
-1395
-1397
-1397
-1397
-1396
-1395
-1396
-1398
-1398
-1398
-1399
-1399
-1399
-1399
-1399
-1398
-1398
-1397
-1398
-1399
-1400
-1401
-1402
-1402
-1401
-1400
-1400
-1401
-1404
-1407
-1412
-1418
-1424
-1431
-1437
-1441
-1443
-1438
-1427
-1408
-1386
-1352
-1305
-1249
-1189
-1127
-1071
-1017
-963
-916
-875
-838
-808
-786
-782
-808
-852
-903
-969
-1049
-1133
-1218
-1295
-1365
-1403
-1414
-1423
-1428
-1426
-1421
-1414
-1407
-1398
-1389
-1382
-1378
-1375
-1373
-1372
-1373
-1373
-1372
-1372
-1372
-1371
-1371
-1371
-1372
-1372
-1372
-1373
-1371
-1370
-1369
-1367
-1366
-1365
-1366
-1366
-1365
-1365
-1365
-1363
-1362
-1360
-1359
-1360
-1360
-1359
-1357
-1356
-1356
-1354
-1352
-1351
-1351
-1350
-1350
-1349
-1348
-1346
-1345
-1344
-1342
-1339
-1337
-1338
-1338
-1337
-1336
-1334
-1331
-1327
-1326
-1325
-1323
-1322
-1320
-1320
-1318
-1316
-1313
-1309
-1307
-1304
-1301
-1299
-1296
-1295
-1292
-1289
-1286
-1283
-1279
-1275
-1272
-1269
-1267
-1265
-1263
-1261
-1258
-1254
-1250
-1246
-1244
-1243
-1241
-1240
-1238
-1237
-1235
-1232
-1230
-1228
-1226
-1226
-1225
-1225
-1226
-1227
-1228
-1228
-1230
-1231
-1234
-1238
-1242
-1247
-1252
-1257
-1261
-1266
-1271
-1276
-1282
-1289
-1297
-1303
-1309
-1314
-1319
-1324
-1328
-1332
-1336
-1340
-1345
-1349
-1352
-1356
-1358
-1359
-1361
-1362
-1365
-1368
-1370
-1372
-1373
-1373
-1373
-1373
-1373
-1374
-1374
-1375
-1376
-1377
-1377
-1377
-1378
-1378
-1377
-1377
-1378
-1377
-1378
-1378
-1379
-1378
-1378
-1377
-1376
-1376
-1376
-1378
-1379
-1378
-1378
-1378
-1377
-1376
-1376
-1376
-1375
-1375
-1376
-1377
-1377
-1377
-1376
-1375
-1374
-1374
-1375
-1376
-1376
-1375
-1376
-1377
-1377
-1375
-1374
-1374
-1375
-1376
-1377
-1378
-1378
-1379
-1379
-1378
-1377
-1377
-1378
-1378
-1379
-1380
-1380
-1379
-1379
-1379
-1379
-1379
-1380
-1381
-1382
-1383
-1383
-1384
-1384
-1384
-1383
-1383
-1384
-1385
-1385
-1386
-1386
-1385
-1386
-1385
-1385
-1385
-1385
-1387
-1389
-1389
-1389
-1389
-1389
-1388
-1388
-1388
-1388
-1388
-1389
-1390
-1390
-1390
-1390
-1390
-1389
-1389
-1389
-1389
-1390
-1391
-1392
-1392
-1392
-1392
-1391
-1391
-1391
-1391
-1392
-1393
-1393
-1392
-1392
-1391
-1391
-1390
-1391
-1392
-1393
-1393
-1394
-1393
-1393
-1393
-1392
-1392
-1392
-1392
-1392
-1393
-1394
-1394
-1393
-1393
-1393
-1392
-1393
-1395
-1395
-1395
-1394
-1394
-1393
-1393
-1392
-1393
-1394
-1395
-1395
-1395
-1396
-1395
-1395
-1394
-1393
-1393
-1394
-1395
-1395
-1396
-1395
-1395
-1395
-1394
-1394
-1394
-1395
-1396
-1396
-1396
-1396
-1395
-1394
-1394
-1394
-1394
-1396
-1396
-1396
-1397
-1397
-1395
-1394
-1394
-1393
-1392
-1392
-1392
-1392
-1392
-1392
-1391
-1388
-1386
-1385
-1385
-1385
-1385
-1384
-1384
-1385
-1385
-1383
-1379
-1375
-1372
-1371
-1372
-1374
-1377
-1380
-1381
-1382
-1383
-1384
-1384
-1386
-1388
-1390
-1390
-1392
-1393
-1395
-1396
-1397
-1399
-1400
-1401
-1402
-1402
-1403
-1404
-1404
-1403
-1402
-1402
-1403
-1404
-1404
-1404
-1404
-1404
-1404
-1404
-1404
-1405
-1405
-1405
-1406
-1407
-1407
-1407
-1409
-1410
-1413
-1419
-1425
-1433
-1440
-1446
-1448
-1445
-1434
-1417
-1395
-1366
-1325
-1272
-1213
-1153
-1094
-1039
-984
-932
-891
-852
-821
-800
-789
-802
-838
-886
-945
-1022
-1104
-1191
-1273
-1349
-1399
-1417
-1424
-1429
-1428
-1424
-1418
-1411
-1405
-1397
-1390
-1385
-1382
-1379
-1377
-1376
-1375
-1375
-1377
-1378
-1380
-1380
-1379
-1379
-1378
-1378
-1377
-1376
-1375
-1375
-1375
-1375
-1374
-1373
-1373
-1371
-1370
-1369
-1370
-1369
-1368
-1368
-1367
-1366
-1364
-1363
-1362
-1361
-1360
-1359
-1359
-1358
-1357
-1355
-1353
-1352
-1351
-1350
-1350
-1349
-1348
-1348
-1347
-1345
-1342
-1339
-1338
-1336
-1335
-1334
-1333
-1332
-1331
-1328
-1325
-1323
-1321
-1319
-1317
-1316
-1314
-1311
-1308
-1304
-1301
-1298
-1295
-1293
-1290
-1288
-1285
-1282
-1279
-1276
-1271
-1267
-1264
-1261
-1259
-1257
-1256
-1254
-1251
-1249
-1247
-1244
-1242
-1241
-1240
-1238
-1237
-1236
-1235
-1234
-1234
-1233
-1234
-1235
-1238
-1240
-1242
-1244
-1248
-1252
-1256
-1260
-1265
-1272
-1278
-1285
-1291
-1296
-1302
-1307
-1311
-1316
-1322
-1328
-1334
-1340
-1345
-1349
-1352
-1355
-1357
-1359
-1363
-1366
-1369
-1372
-1375
-1377
-1377
-1377
-1378
-1379
-1380
-1381
-1382
-1383
-1384
-1385
-1385
-1386
-1386
-1386
-1385
-1386
-1387
-1388
-1387
-1386
-1385
-1385
-1384
-1383
-1384
-1385
-1385
-1386
-1387
-1387
-1386
-1386
-1385
-1385
-1384
-1384
-1385
-1384
-1384
-1384
-1384
-1383
-1382
-1382
-1382
-1382
-1382
-1383
-1383
-1384
-1384
-1384
-1384
-1384
-1384
-1383
-1383
-1383
-1384
-1384
-1384
-1384
-1383
-1383
-1383
-1384
-1385
-1386
-1386
-1386
-1387
-1387
-1386
-1386
-1387
-1387
-1389
-1389
-1389
-1390
-1389
-1389
-1387
-1387
-1388
-1388
-1389
-1390
-1392
-1392
-1392
-1392
-1392
-1392
-1392
-1392
-1394
-1394
-1395
-1396
-1395
-1394
-1394
-1394
-1395
-1396
-1396
-1397
-1397
-1397
-1397
-1396
-1395
-1394
-1395
-1396
-1398
-1398
-1399
-1399
-1399
-1399
-1399
-1398
-1397
-1398
-1398
-1398
-1398
-1398
-1399
-1399
-1399
-1399
-1399
-1400
-1400
-1400
-1400
-1400
-1400
-1401
-1400
-1399
-1400
-1400
-1399
-1399
-1399
-1400
-1400
-1400
-1400
-1400
-1400
-1401
-1401
-1401
-1400
-1401
-1402
-1401
-1400
-1400
-1401
-1402
-1402
-1402
-1402
-1402
-1402
-1401
-1400
-1400
-1401
-1401
-1402
-1402
-1403
-1404
-1404
-1403
-1402
-1401
-1401
-1402
-1401
-1402
-1403
-1403
-1402
-1402
-1401
-1402
-1402
-1403
-1403
-1403
-1403
-1404
-1403
-1402
-1401
-1401
-1401
-1402
-1403
-1404
-1404
-1403
-1402
-1401
-1401
-1401
-1402
-1402
-1403
-1403
-1403
-1402
-1401
-1400
-1400
-1399
-1399
-1399
-1400
-1400
-1399
-1398
-1395
-1392
-1391
-1391
-1390
-1391
-1392
-1392
-1391
-1391
-1390
-1387
-1383
-1379
-1378
-1377
-1378
-1381
-1382
-1385
-1387
-1389
-1390
-1391
-1393
-1393
-1394
-1395
-1396
-1397
-1399
-1400
-1401
-1402
-1404
-1406
-1407
-1408
-1410
-1410
-1409
-1407
-1406
-1406
-1407
-1409
-1410
-1411
-1411
-1411
-1410
-1409
-1409
-1408
-1410
-1411
-1412
-1413
-1412
-1412
-1413
-1414
-1418
-1423
-1431
-1439
-1447
-1453
-1456
-1455
-1445
-1428
-1407
-1381
-1342
-1290
-1231
-1168
-1107
-1051
-994
-940
-892
-853
-821
-796
-782
-795
-834
-884
-944
-1020
-1103
-1188
-1270
-1345
-1403
-1425
-1433
-1437
-1433
-1427
-1420
-1413
-1407
-1399
-1392
-1387
-1383
-1380
-1380
-1380
-1381
-1381
-1382
-1383
-1384
-1385
-1384
-1383
-1381
-1380
-1380
-1379
-1379
-1379
-1379
-1379
-1379
-1378
-1376
-1375
-1373
-1372
-1372
-1373
-1373
-1373
-1371
-1370
-1368
-1366
-1365
-1364
-1364
-1364
-1363
-1362
-1361
-1359
-1357
-1355
-1354
-1353
-1352
-1352
-1351
-1350
-1348
-1346
-1345
-1342
-1341
-1340
-1338
-1336
-1335
-1334
-1333
-1330
-1327
-1324
-1322
-1320
-1319
-1316
-1315
-1313
-1309
-1306
-1303
-1299
-1297
-1294
-1291
-1289
-1286
-1283
-1280
-1276
-1271
-1267
-1264
-1262
-1260
-1258
-1255
-1252
-1250
-1248
-1245
-1242
-1240
-1237
-1237
-1236
-1235
-1234
-1233
-1232
-1231
-1230
-1229
-1230
-1232
-1234
-1236
-1239
-1242
-1245
-1248
-1253
-1259
-1265
-1272
-1279
-1285
-1290
-1295
-1300
-1305
-1310
-1316
-1321
-1326
-1332
-1338
-1344
-1348
-1352
-1355
-1357
-1359
-1362
-1365
-1368
-1370
-1372
-1374
-1374
-1374
-1375
-1376
-1377
-1378
-1380
-1382
-1383
-1382
-1382
-1382
-1382
-1382
-1382
-1383
-1383
-1383
-1383
-1383
-1383
-1383
-1382
-1381
-1381
-1382
-1383
-1382
-1382
-1382
-1382
-1382
-1382
-1381
-1380
-1381
-1382
-1381
-1381
-1381
-1380
-1379
-1379
-1378
-1379
-1379
-1379
-1379
-1379
-1380
-1380
-1379
-1378
-1378
-1380
-1381
-1381
-1381
-1380
-1381
-1381
-1380
-1379
-1379
-1380
-1381
-1382
-1383
-1383
-1382
-1382
-1382
-1382
-1382
-1383
-1384
-1384
-1385
-1385
-1385
-1385
-1386
-1386
-1386
-1386
-1386
-1386
-1387
-1387
-1387
-1387
-1387
-1387
-1387
-1388
-1389
-1390
-1391
-1390
-1389
-1390
-1390
-1390
-1390
-1390
-1391
-1391
-1392
-1393
-1393
-1393
-1392
-1392
-1393
-1393
-1393
-1393
-1393
-1394
-1394
-1394
-1393
-1392
-1392
-1393
-1394
-1395
-1396
-1396
-1395
-1395
-1394
-1395
-1394
-1395
-1396
-1395
-1395
-1396
-1396
-1396
-1396
-1395
-1395
-1395
-1396
-1397
-1396
-1397
-1398
-1397
-1396
-1395
-1396
-1396
-1398
-1398
-1397
-1396
-1397
-1396
-1396
-1395
-1396
-1397
-1398
-1399
-1399
-1398
-1398
-1397
-1397
-1397
-1397
-1397
-1397
-1398
-1399
-1398
-1398
-1397
-1397
-1397
-1397
-1398
-1399
-1400
-1400
-1398
-1398
-1398
-1397
-1397
-1397
-1398
-1399
-1400
-1400
-1400
-1399
-1398
-1397
-1397
-1398
-1398
-1399
-1399
-1400
-1400
-1399
-1399
-1399
-1398
-1398
-1398
-1399
-1399
-1398
-1397
-1396
-1396
-1395
-1395
-1394
-1395
-1394
-1392
-1391
-1389
-1388
-1388
-1387
-1386
-1388
-1387
-1387
-1385
-1381
-1378
-1377
-1374
-1374
-1376
-1379
-1382
-1384
-1387
-1389
-1389
-1391
-1392
-1393
-1393
-1394
-1396
-1398
-1399
-1401
-1402
-1402
-1402
-1402
-1402
-1404
-1406
-1406
-1406
-1407
-1406
-1405
-1404
-1404
-1405
-1405
-1406
-1408
-1409
-1409
-1409
-1409
-1407
-1407
-1407
-1407
-1407
-1409
-1412
-1415
-1422
-1428
-1433
-1438
-1442
-1444
-1440
-1430
-1412
-1389
-1356
-1312
-1259
-1202
-1144
-1088
-1037
-985
-941
-905
-870
-841
-821
-810
-826
-862
-912
-973
-1053
-1133
-1218
-1296
-1364
-1401
-1416
-1424
-1434
-1440
-1438
-1432
-1425
-1417
-1409
-1399
-1392
-1387
-1384
-1382
-1381
-1381
-1380
-1379
-1379
-1378
-1378
-1378
-1378
-1378
-1378
-1378
-1377
-1376
-1375
-1375
-1375
-1374
-1374
-1374
-1373
-1372
-1370
-1369
-1367
-1367
-1366
-1365
-1366
-1366
-1364
-1363
-1362
-1361
-1359
-1357
-1356
-1356
-1356
-1355
-1353
-1352
-1351
-1349
-1347
-1346
-1344
-1343
-1343
-1342
-1341
-1340
-1338
-1335
-1333
-1330
-1328
-1326
-1325
-1325
-1324
-1321
-1319
-1317
-1314
-1310
-1308
-1306
-1303
-1301
-1299
-1297
-1294
-1291
-1288
-1284
-1280
-1277
-1274
-1271
-1269
-1267
-1265
-1261
-1258
-1256
-1253
-1251
-1250
-1249
-1248
-1246
-1243
-1241
-1239
-1237
-1237
-1237
-1237
-1237
-1238
-1238
-1239
-1240
-1241
-1243
-1247
-1250
-1255
-1259
-1264
-1269
-1274
-1279
-1284
-1289
-1295
-1301
-1308
-1314
-1320
-1325
-1329
-1333
-1337
-1341
-1344
-1349
-1354
-1358
-1361
-1363
-1365
-1366
-1368
-1369
-1371
-1373
-1374
-1376
-1378
-1379
-1381
-1382
-1382
-1382
-1382
-1383
-1384
-1384
-1384
-1385
-1385
-1384
-1384
-1384
-1383
-1384
-1384
-1384
-1384
-1384
-1383
-1382
-1382
-1383
-1383
-1384
-1384
-1384
-1384
-1383
-1383
-1382
-1381
-1382
-1382
-1383
-1383
-1382
-1383
-1383
-1382
-1381
-1380
-1380
-1382
-1382
-1381
-1381
-1382
-1382
-1382
-1381
-1381
-1381
-1381
-1382
-1382
-1383
-1383
-1383
-1383
-1383
-1383
-1384
-1385
-1385
-1386
-1387
-1388
-1388
-1388
-1387
-1387
-1387
-1388
-1388
-1390
-1390
-1390
-1390
-1391
-1391
-1390
-1390
-1391
-1391
-1392
-1393
-1393
-1394
-1393
-1392
-1391
-1392
-1393
-1395
-1396
-1396
-1397
-1397
-1397
-1396
-1396
-1396
-1397
-1397
-1397
-1397
-1398
-1398
-1398
-1398
-1398
-1398
-1398
-1399
-1398
-1398
-1398
-1399
-1399
-1400
-1400
-1401
-1401
-1400
-1400
-1401
-1402
-1401
-1400
-1399
-1399
-1400
-1400
-1400
-1402
-1402
-1402
-1402
-1402
-1401
-1401
-1400
-1400
-1402
-1402
-1403
-1404
-1403
-1402
-1401
-1401
-1402
-1403
-1402
-1402
-1403
-1402
-1402
-1402
-1401
-1402
-1402
-1402
-1402
-1403
-1403
-1403
-1403
-1403
-1403
-1403
-1403
-1404
-1404
-1405
-1405
-1405
-1405
-1405
-1404
-1403
-1404
-1404
-1404
-1405
-1406
-1405
-1405
-1404
-1403
-1403
-1404
-1405
-1405
-1406
-1406
-1406
-1406
-1405
-1405
-1405
-1405
-1404
-1404
-1403
-1404
-1404
-1403
-1401
-1400
-1400
-1399
-1400
-1399
-1397
-1395
-1394
-1394
-1394
-1395
-1394
-1393
-1393
-1393
-1391
-1389
-1384
-1382
-1381
-1380
-1383
-1386
-1389
-1391
-1393
-1395
-1396
-1397
-1397
-1397
-1398
-1399
-1401
-1403
-1405
-1407
-1407
-1409
-1411
-1410
-1410
-1410
-1411
-1412
-1413
-1415
-1414
-1414
-1412
-1412
-1411
-1411
-1412
-1413
-1414
-1415
-1415
-1414
-1414
-1413
-1413
-1414
-1415
-1416
-1419
-1422
-1427
-1433
-1440
-1447
-1452
-1458
-1460
-1456
-1444
-1426
-1404
-1371
-1324
-1269
-1207
-1144
-1086
-1029
-973
-920
-877
-840
-810
-787
-785
-810
-856
-910
-978
-1059
-1144
-1227
-1305
-1374
-1416
-1430
-1437
-1439
-1434
-1428
-1421
-1416
-1407
-1399
-1393
-1389
-1387
-1386
-1386
-1387
-1387
-1387
-1388
-1387
-1386
-1385
-1385
-1385
-1386
-1388
-1388
-1387
-1385
-1384
-1383
-1383
-1383
-1383
-1382
-1381
-1380
-1379
-1378
-1377
-1377
-1376
-1375
-1374
-1374
-1373
-1372
-1371
-1369
-1367
-1366
-1365
-1365
-1364
-1364
-1362
-1361
-1359
-1357
-1356
-1355
-1354
-1354
-1352
-1352
-1350
-1348
-1345
-1343
-1340
-1339
-1337
-1336
-1334
-1333
-1330
-1328
-1324
-1322
-1318
-1317
-1315
-1313
-1310
-1308
-1305
-1302
-1299
-1294
-1291
-1288
-1284
-1282
-1279
-1274
-1272
-1269
-1266
-1263
-1260
-1258
-1256
-1254
-1252
-1250
-1247
-1245
-1244
-1240
-1239
-1238
-1238
-1237
-1237
-1238
-1238
-1238
-1237
-1238
-1240
-1242
-1246
-1251
-1256
-1262
-1267
-1272
-1277
-1282
-1287
-1293
-1299
-1307
-1314
-1319
-1325
-1330
-1334
-1339
-1343
-1347
-1351
-1356
-1360
-1364
-1368
-1370
-1372
-1374
-1376
-1377
-1379
-1381
-1383
-1385
-1386
-1386
-1386
-1386
-1387
-1388
-1389
-1390
-1390
-1390
-1390
-1390
-1389
-1389
-1389
-1390
-1390
-1391
-1392
-1392
-1392
-1391
-1391
-1390
-1390
-1390
-1389
-1389
-1390
-1390
-1390
-1390
-1388
-1388
-1387
-1387
-1387
-1388
-1389
-1390
-1389
-1389
-1388
-1387
-1386
-1386
-1386
-1387
-1387
-1388
-1388
-1388
-1388
-1386
-1385
-1385
-1386
-1387
-1387
-1388
-1388
-1387
-1387
-1387
-1386
-1386
-1388
-1388
-1390
-1390
-1390
-1390
-1389
-1389
-1390
-1390
-1390
-1390
-1391
-1392
-1392
-1392
-1392
-1392
-1392
-1393
-1394
-1394
-1395
-1396
-1396
-1396
-1394
-1394
-1395
-1396
-1396
-1397
-1398
-1399
-1398
-1398
-1398
-1397
-1397
-1398
-1399
-1399
-1400
-1399
-1399
-1398
-1399
-1399
-1399
-1399
-1399
-1400
-1402
-1402
-1402
-1401
-1401
-1400
-1401
-1400
-1401
-1402
-1402
-1403
-1403
-1402
-1402
-1402
-1402
-1402
-1401
-1402
-1403
-1403
-1403
-1402
-1403
-1402
-1402
-1403
-1403
-1404
-1404
-1403
-1403
-1402
-1402
-1402
-1403
-1404
-1404
-1405
-1405
-1404
-1405
-1404
-1403
-1403
-1403
-1402
-1402
-1404
-1405
-1405
-1405
-1405
-1406
-1406
-1405
-1405
-1404
-1405
-1405
-1405
-1405
-1404
-1405
-1407
-1406
-1405
-1406
-1407
-1407
-1408
-1407
-1405
-1405
-1405
-1405
-1406
-1406
-1407
-1407
-1407
-1407
-1406
-1405
-1404
-1404
-1406
-1406
-1406
-1406
-1406
-1407
-1405
-1403
-1404
-1404
-1404
-1404
-1404
-1404
-1404
-1403
-1402
-1401
-1400
-1397
-1396
-1396
-1396
-1396
-1396
-1395
-1395
-1396
-1395
-1394
-1391
-1387
-1384
-1382
-1381
-1382
-1384
-1387
-1388
-1390
-1391
-1394
-1395
-1398
-1399
-1399
-1400
-1400
-1401
-1402
-1405
-1406
-1408
-1409
-1411
-1411
-1410
-1409
-1410
-1411
-1412
-1413
-1414
-1414
-1413
-1413
-1412
-1410
-1409
-1410
-1412
-1414
-1416
-1416
-1417
-1416
-1414
-1413
-1414
-1415
-1418
-1422
-1428
-1435
-1441
-1446
-1450
-1452
-1449
-1439
-1423
-1402
-1373
-1332
-1280
-1223
-1164
-1106
-1055
-1002
-955
-916
-881
-850
-829
-815
-826
-858
-905
-963
-1040
-1120
-1206
-1288
-1360
-1406
-1423
-1431
-1440
-1446
-1445
-1439
-1432
-1426
-1417
-1406
-1398
-1393
-1390
-1388
-1387
-1386
-1386
-1386
-1387
-1387
-1386
-1386
-1384
-1384
-1384
-1385
-1385
-1384
-1384
-1383
-1381
-1379
-1379
-1379
-1379
-1379
-1379
-1378
-1377
-1376
-1374
-1372
-1372
-1371
-1371
-1370
-1369
-1367
-1367
-1365
-1364
-1364
-1363
-1362
-1361
-1360
-1359
-1357
-1355
-1354
-1352
-1350
-1349
-1348
-1347
-1346
-1346
-1344
-1342
-1340
-1337
-1334
-1333
-1332
-1331
-1329
-1327
-1324
-1321
-1318
-1316
-1313
-1311
-1309
-1307
-1305
-1302
-1299
-1296
-1291
-1286
-1283
-1281
-1278
-1276
-1273
-1271
-1269
-1267
-1264
-1260
-1257
-1254
-1253
-1252
-1252
-1251
-1250
-1248
-1245
-1243
-1241
-1240
-1241
-1242
-1244
-1245
-1246
-1248
-1251
-1253
-1256
-1261
-1265
-1269
-1274
-1279
-1286
-1292
-1297
-1303
-1308
-1313
-1320
-1325
-1330
-1336
-1341
-1345
-1350
-1353
-1356
-1359
-1363
-1367
-1371
-1375
-1376
-1377
-1378
-1379
-1381
-1382
-1383
-1385
-1386
-1387
-1388
-1388
-1388
-1389
-1391
-1392
-1393
-1394
-1393
-1392
-1393
-1392
-1392
-1393
-1393
-1392
-1393
-1393
-1393
-1393
-1394
-1394
-1392
-1391
-1391
-1391
-1392
-1393
-1393
-1393
-1392
-1391
-1390
-1389
-1389
-1388
-1389
-1391
-1391
-1391
-1391
-1390
-1389
-1389
-1388
-1388
-1388
-1388
-1389
-1390
-1390
-1390
-1390
-1390
-1389
-1389
-1390
-1391
-1391
-1391
-1391
-1391
-1391
-1391
-1392
-1393
-1394
-1395
-1396
-1396
-1396
-1397
-1396
-1395
-1396
-1396
-1397
-1398
-1399
-1399
-1399
-1398
-1398
-1398
-1398
-1399
-1400
-1399
-1400
-1402
-1402
-1403
-1402
-1401
-1401
-1402
-1402
-1403
-1405
-1405
-1405
-1405
-1404
-1403
-1403
-1404
-1405
-1406
-1406
-1406
-1407
-1407
-1406
-1406
-1406
-1406
-1407
-1408
-1407
-1407
-1408
-1408
-1407
-1407
-1407
-1407
-1407
-1408
-1409
-1409
-1409
-1408
-1408
-1407
-1407
-1407
-1409
-1410
-1409
-1409
-1409
-1409
-1408
-1408
-1408
-1409
-1410
-1410
-1410
-1410
-1410
-1410
-1410
-1409
-1409
-1409
-1410
-1410
-1410
-1410
-1411
-1411
-1410
-1409
-1408
-1408
-1409
-1410
-1411
-1412
-1412
-1412
-1411
-1410
-1410
-1411
-1412
-1412
-1413
-1411
-1411
-1412
-1411
-1410
-1409
-1410
-1411
-1411
-1412
-1412
-1412
-1411
-1412
-1411
-1411
-1411
-1411
-1411
-1412
-1412
-1412
-1412
-1412
-1411
-1411
-1410
-1411
-1412
-1413
-1412
-1410
-1409
-1409
-1408
-1407
-1407
-1408
-1407
-1408
-1408
-1406
-1402
-1401
-1400
-1399
-1399
-1400
-1401
-1401
-1401
-1400
-1397
-1394
-1389
-1387
-1387
-1387
-1390
-1391
-1395
-1397
-1398
-1398
-1399
-1401
-1402
-1403
-1404
-1405
-1407
-1409
-1410
-1411
-1412
-1413
-1415
-1415
-1416
-1416
-1418
-1418
-1417
-1417
-1416
-1416
-1417
-1418
-1419
-1419
-1420
-1421
-1420
-1418
-1418
-1418
-1419
-1420
-1421
-1421
-1421
-1422
-1424
-1425
-1429
-1436
-1444
-1452
-1457
-1463
-1466
-1462
-1450
-1432
-1412
-1382
-1337
-1282
-1221
-1159
-1099
-1041
-982
-926
-882
-844
-813
-792
-787
-809
-853
-903
-967
-1046
-1130
-1215
-1297
-1370
-1419
-1435
-1441
-1441
-1436
-1430
-1423
-1418
-1411
-1404
-1399
-1395
-1392
-1390
-1389
-1389
-1390
-1390
-1390
-1391
-1392
-1392
-1392
-1391
-1390
-1389
-1388
-1387
-1387
-1388
-1387
-1387
-1386
-1386
-1385
-1383
-1383
-1382
-1381
-1381
-1381
-1380
-1379
-1378
-1376
-1375
-1374
-1373
-1373
-1373
-1372
-1370
-1369
-1368
-1366
-1365
-1364
-1363
-1362
-1360
-1360
-1359
-1357
-1355
-1352
-1350
-1348
-1348
-1347
-1345
-1344
-1342
-1340
-1338
-1335
-1332
-1330
-1328
-1327
-1325
-1322
-1319
-1316
-1314
-1311
-1306
-1303
-1300
-1298
-1295
-1292
-1289
-1284
-1281
-1277
-1273
-1269
-1266
-1264
-1262
-1260
-1258
-1256
-1253
-1250
-1248
-1245
-1243
-1241
-1240
-1240
-1238
-1238
-1237
-1236
-1236
-1237
-1237
-1239
-1242
-1245
-1248
-1251
-1256
-1260
-1264
-1270
-1275
-1282
-1288
-1295
-1302
-1307
-1312
-1317
-1321
-1327
-1332
-1338
-1345
-1350
-1355
-1359
-1362
-1365
-1366
-1369
-1372
-1375
-1377
-1379
-1382
-1383
-1384
-1384
-1385
-1385
-1387
-1389
-1390
-1390
-1391
-1391
-1392
-1391
-1390
-1390
-1391
-1392
-1394
-1395
-1394
-1394
-1393
-1392
-1391
-1392
-1392
-1393
-1393
-1393
-1393
-1392
-1393
-1391
-1390
-1389
-1390
-1390
-1390
-1391
-1392
-1391
-1390
-1389
-1388
-1388
-1389
-1390
-1391
-1391
-1390
-1389
-1388
-1387
-1387
-1387
-1387
-1388
-1389
-1389
-1389
-1389
-1389
-1388
-1387
-1388
-1389
-1390
-1390
-1390
-1391
-1391
-1390
-1390
-1389
-1389
-1390
-1392
-1392
-1393
-1394
-1393
-1393
-1392
-1392
-1393
-1394
-1394
-1395
-1395
-1397
-1397
-1396
-1395
-1396
-1395
-1396
-1397
-1397
-1399
-1398
-1398
-1397
-1397
-1397
-1398
-1400
-1400
-1400
-1400
-1401
-1401
-1400
-1399
-1399
-1400
-1401
-1401
-1402
-1402
-1402
-1403
-1402
-1401
-1401
-1402
-1402
-1402
-1402
-1402
-1403
-1404
-1404
-1403
-1404
-1403
-1403
-1403
-1404
-1405
-1405
-1404
-1404
-1404
-1404
-1404
-1404
-1405
-1405
-1405
-1405
-1405
-1405
-1404
-1404
-1403
-1404
-1405
-1405
-1405
-1405
-1405
-1405
-1404
-1404
-1404
-1404
-1405
-1405
-1406
-1407
-1407
-1407
-1406
-1405
-1406
-1407
-1407
-1406
-1407
-1406
-1406
-1405
-1405
-1406
-1406
-1407
-1408
-1407
-1408
-1408
-1407
-1407
-1406
-1406
-1406
-1406
-1406
-1408
-1408
-1408
-1406
-1406
-1405
-1405
-1406
-1406
-1406
-1407
-1407
-1407
-1408
-1408
-1407
-1406
-1406
-1406
-1406
-1407
-1409
-1409
-1408
-1408
-1406
-1405
-1406
-1405
-1406
-1408
-1409
-1408
-1408
-1408
-1407
-1405
-1405
-1406
-1407
-1407
-1406
-1405
-1403
-1401
-1399
-1397
-1398
-1397
-1397
-1398
-1398
-1397
-1397
-1396
-1393
-1390
-1387
-1385
-1383
-1382
-1383
-1386
-1388
-1390
-1391
-1394
-1396
-1399
-1400
-1401
-1402
-1401
-1402
-1403
-1404
-1406
-1407
-1408
-1410
-1411
-1412
-1412
-1412
-1412
-1411
-1411
-1412
-1413
-1414
-1416
-1416
-1415
-1414
-1413
-1413
-1413
-1414
-1413
-1413
-1414
-1415
-1415
-1414
-1415
-1415
-1416
-1420
-1425
-1431
-1439
-1445
-1450
-1453
-1450
-1443
-1428
-1408
-1382
-1344
-1293
-1238
-1179
-1121
-1068
-1016
-964
-923
-887
-854
-831
-814
-818
-846
-888
-941
-1013
-1093
-1177
-1263
-1338
-1395
-1419
-1428
-1437
-1444
-1443
-1438
-1432
-1426
-1419
-1409
-1401
-1397
-1391
-1387
-1385
-1384
-1385
-1385
-1385
-1386
-1386
-1386
-1384
-1383
-1383
-1383
-1383
-1383
-1382
-1381
-1380
-1379
-1378
-1378
-1377
-1378
-1377
-1376
-1375
-1375
-1374
-1372
-1370
-1370
-1370
-1369
-1368
-1367
-1366
-1364
-1362
-1361
-1359
-1359
-1358
-1357
-1357
-1356
-1355
-1354
-1353
-1351
-1349
-1347
-1345
-1344
-1343
-1341
-1340
-1338
-1336
-1333
-1331
-1329
-1327
-1326
-1324
-1322
-1320
-1317
-1314
-1311
-1308
-1305
-1302
-1300
-1297
-1295
-1293
-1290
-1286
-1282
-1279
-1275
-1272
-1270
-1268
-1266
-1263
-1260
-1258
-1255
-1252
-1249
-1247
-1246
-1244
-1243
-1242
-1240
-1239
-1237
-1236
-1236
-1237
-1237
-1238
-1240
-1242
-1243
-1246
-1249
-1252
-1255
-1260
-1266
-1271
-1276
-1283
-1289
-1295
-1299
-1304
-1310
-1315
-1321
-1326
-1332
-1337
-1342
-1346
-1350
-1352
-1356
-1359
-1363
-1366
-1368
-1371
-1373
-1374
-1375
-1376
-1376
-1378
-1379
-1380
-1381
-1383
-1384
-1384
-1384
-1384
-1385
-1386
-1387
-1387
-1387
-1388
-1387
-1387
-1387
-1386
-1386
-1385
-1385
-1386
-1386
-1387
-1387
-1387
-1385
-1384
-1385
-1385
-1384
-1385
-1384
-1384
-1385
-1385
-1384
-1383
-1383
-1383
-1383
-1383
-1383
-1384
-1384
-1383
-1382
-1382
-1382
-1383
-1383
-1382
-1383
-1383
-1383
-1384
-1384
-1383
-1383
-1384
-1384
-1384
-1385
-1385
-1385
-1385
-1384
-1385
-1385
-1386
-1386
-1387
-1387
-1388
-1388
-1388
-1389
-1389
-1390
-1390
-1390
-1391
-1392
-1392
-1392
-1392
-1392
-1392
-1392
-1392
-1393
-1394
-1394
-1395
-1396
-1395
-1395
-1395
-1395
-1395
-1396
-1397
-1396
-1396
-1396
-1396
-1396
-1396
-1397
-1397
-1398
-1398
-1399
-1399
-1400
-1400
-1399
-1399
-1398
-1399
-1400
-1401
-1402
-1401
-1401
-1401
-1401
-1401
-1401
-1402
-1402
-1402
-1403
-1403
-1402
-1401
-1401
-1401
-1401
-1401
-1402
-1403
-1403
-1403
-1403
-1403
-1402
-1402
-1402
-1402
-1402
-1403
-1403
-1403
-1404
-1403
-1402
-1402
-1402
-1402
-1403
-1404
-1404
-1405
-1405
-1404
-1404
-1404
-1404
-1404
-1405
-1406
-1406
-1405
-1405
-1404
-1403
-1403
-1404
-1405
-1406
-1406
-1406
-1406
-1406
-1405
-1404
-1404
-1405
-1405
-1405
-1406
-1406
-1406
-1405
-1405
-1404
-1404
-1405
-1405
-1405
-1406
-1405
-1405
-1405
-1404
-1404
-1404
-1405
-1406
-1407
-1408
-1408
-1407
-1406
-1406
-1405
-1404
-1405
-1405
-1406
-1407
-1407
-1406
-1405
-1406
-1405
-1405
-1405
-1405
-1406
-1406
-1407
-1406
-1406
-1404
-1403
-1402
-1402
-1402
-1402
-1402
-1400
-1398
-1395
-1394
-1393
-1394
-1394
-1394
-1395
-1394
-1394
-1392
-1389
-1385
-1382
-1381
-1381
-1383
-1386
-1389
-1391
-1392
-1394
-1395
-1396
-1398
-1399
-1399
-1400
-1402
-1403
-1405
-1406
-1406
-1407
-1408
-1408
-1410
-1411
-1411
-1413
-1414
-1414
-1413
-1412
-1413
-1414
-1413
-1414
-1414
-1415
-1415
-1415
-1415
-1414
-1415
-1415
-1416
-1417
-1417
-1417
-1419
-1422
-1425
-1431
-1438
-1446
-1453
-1458
-1461
-1458
-1447
-1429
-1407
-1378
-1333
-1278
-1217
-1156
-1096
-1038
-980
-925
-878
-839
-808
-786
-780
-802
-846
-896
-958
-1036
-1120
-1204
-1286
-1359
-1412
-1429
-1436
-1436
-1432
-1426
-1420
-1414
-1406
-1398
-1393
-1390
-1386
-1385
-1385
-1385
-1384
-1385
-1385
-1386
-1386
-1387
-1387
-1387
-1386
-1386
-1385
-1384
-1383
-1383
-1383
-1383
-1382
-1381
-1381
-1380
-1379
-1378
-1377
-1377
-1376
-1375
-1375
-1374
-1372
-1371
-1370
-1369
-1368
-1368
-1367
-1365
-1364
-1363
-1361
-1360
-1358
-1356
-1356
-1355
-1355
-1355
-1353
-1351
-1349
-1346
-1344
-1342
-1341
-1340
-1338
-1337
-1337
-1334
-1331
-1329
-1326
-1323
-1321
-1319
-1317
-1314
-1312
-1310
-1307
-1303
-1299
-1296
-1292
-1290
-1287
-1283
-1280
-1276
-1273
-1269
-1265
-1262
-1259
-1257
-1254
-1251
-1249
-1247
-1244
-1242
-1239
-1237
-1236
-1234
-1233
-1232
-1232
-1230
-1229
-1228
-1228
-1228
-1229
-1232
-1235
-1238
-1242
-1245
-1250
-1255
-1259
-1264
-1271
-1277
-1284
-1290
-1296
-1302
-1307
-1313
-1318
-1324
-1330
-1334
-1339
-1344
-1349
-1353
-1357
-1361
-1363
-1366
-1369
-1371
-1373
-1376
-1378
-1379
-1380
-1380
-1380
-1381
-1382
-1383
-1384
-1385
-1386
-1387
-1387
-1387
-1388
-1387
-1387
-1388
-1389
-1390
-1389
-1389
-1388
-1388
-1387
-1388
-1387
-1387
-1387
-1388
-1388
-1388
-1388
-1388
-1386
-1386
-1386
-1387
-1387
-1387
-1387
-1386
-1387
-1386
-1385
-1385
-1386
-1387
-1386
-1386
-1386
-1387
-1387
-1385
-1384
-1383
-1384
-1384
-1384
-1385
-1385
-1387
-1387
-1387
-1386
-1385
-1386
-1387
-1387
-1388
-1388
-1388
-1389
-1388
-1387
-1387
-1388
-1390
-1390
-1390
-1390
-1390
-1390
-1391
-1390
-1390
-1391
-1392
-1393
-1393
-1393
-1393
-1393
-1392
-1392
-1394
-1394
-1396
-1396
-1396
-1396
-1396
-1397
-1396
-1396
-1396
-1398
-1398
-1398
-1399
-1399
-1399
-1399
-1399
-1399
-1398
-1398
-1398
-1400
-1401
-1401
-1401
-1401
-1402
-1402
-1401
-1400
-1401
-1402
-1402
-1403
-1403
-1402
-1401
-1400
-1401
-1400
-1401
-1403
-1403
-1404
-1404
-1404
-1403
-1403
-1402
-1403
-1404
-1404
-1405
-1406
-1405
-1404
-1402
-1401
-1402
-1402
-1403
-1405
-1405
-1405
-1405
-1405
-1404
-1404
-1404
-1405
-1405
-1406
-1406
-1406
-1406
-1405
-1404
-1404
-1404
-1404
-1405
-1406
-1407
-1407
-1405
-1405
-1406
-1406
-1405
-1406
-1407
-1407
-1407
-1407
-1407
-1407
-1406
-1405
-1406
-1407
-1407
-1407
-1407
-1406
-1404
-1404
-1404
-1406
-1407
-1407
-1408
-1408
-1409
-1409
-1408
-1409
-1408
-1407
-1406
-1406
-1408
-1408
-1408
-1408
-1408
-1408
-1407
-1407
-1407
-1408
-1408
-1409
-1409
-1408
-1407
-1406
-1405
-1405
-1405
-1405
-1405
-1406
-1405
-1405
-1404
-1402
-1400
-1397
-1397
-1397
-1398
-1399
-1399
-1398
-1397
-1395
-1393
-1389
-1387
-1386
-1385
-1384
-1385
-1389
-1391
-1392
-1392
-1393
-1396
-1398
-1400
-1401
-1402
-1402
-1403
-1404
-1405
-1407
-1408
-1410
-1411
-1413
-1413
-1412
-1413
-1413
-1413
-1414
-1414
-1414
-1415
-1416
-1416
-1416
-1416
-1415
-1415
-1416
-1416
-1416
-1416
-1416
-1416
-1416
-1415
-1414
-1415
-1417
-1421
-1426
-1432
-1440
-1446
-1451
-1455
-1455
-1446
-1430
-1410
-1383
-1344
-1294
-1238
-1179
-1120
-1067
-1014
-964
-922
-885
-853
-830
-814
-818
-845
-888
-942
-1014
-1095
-1179
-1263
-1338
-1396
-1420
-1429
-1437
-1444
-1444
-1438
-1432
-1426
-1420
-1410
-1401
-1396
-1392
-1389
-1387
-1386
-1387
-1388
-1388
-1388
-1388
-1387
-1387
-1386
-1386
-1385
-1385
-1385
-1385
-1384
-1383
-1382
-1380
-1380
-1379
-1380
-1380
-1379
-1378
-1378
-1377
-1376
-1375
-1373
-1372
-1372
-1371
-1370
-1369
-1368
-1368
-1367
-1365
-1364
-1363
-1361
-1360
-1359
-1359
-1358
-1356
-1354
-1352
-1351
-1350
-1348
-1347
-1346
-1345
-1343
-1341
-1339
-1336
-1335
-1333
-1330
-1329
-1327
-1326
-1324
-1321
-1319
-1315
-1312
-1309
-1306
-1304
-1302
-1299
-1295
-1291
-1287
-1284
-1281
-1278
-1275
-1273
-1270
-1268
-1266
-1263
-1261
-1258
-1255
-1253
-1252
-1250
-1248
-1247
-1246
-1245
-1243
-1242
-1241
-1242
-1242
-1243
-1245
-1246
-1248
-1250
-1253
-1257
-1260
-1265
-1270
-1276
-1281
-1287
-1293
-1298
-1303
-1308
-1314
-1321
-1327
-1333
-1338
-1343
-1349
-1352
-1356
-1359
-1362
-1366
-1369
-1373
-1376
-1378
-1380
-1382
-1383
-1384
-1385
-1387
-1388
-1389
-1390
-1392
-1392
-1393
-1393
-1392
-1392
-1392
-1393
-1394
-1395
-1396
-1395
-1395
-1394
-1393
-1393
-1394
-1395
-1395
-1396
-1396
-1396
-1395
-1394
-1393
-1392
-1392
-1393
-1393
-1394
-1395
-1394
-1394
-1394
-1393
-1392
-1392
-1392
-1392
-1392
-1392
-1392
-1392
-1391
-1390
-1390
-1391
-1392
-1393
-1394
-1394
-1393
-1393
-1393
-1392
-1392
-1393
-1394
-1395
-1395
-1395
-1395
-1395
-1394
-1394
-1395
-1395
-1396
-1397
-1398
-1398
-1398
-1399
-1399
-1399
-1399
-1399
-1400
-1401
-1401
-1402
-1402
-1401
-1401
-1401
-1401
-1402
-1403
-1405
-1406
-1406
-1405
-1404
-1405
-1405
-1405
-1406
-1407
-1407
-1407
-1406
-1407
-1407
-1407
-1407
-1407
-1408
-1409
-1409
-1409
-1409
-1409
-1409
-1409
-1409
-1409
-1409
-1410
-1410
-1410
-1411
-1410
-1411
-1411
-1411
-1410
-1410
-1411
-1411
-1412
-1411
-1411
-1411
-1411
-1411
-1411
-1411
-1411
-1411
-1411
-1411
-1412
-1411
-1411
-1411
-1412
-1411
-1412
-1413
-1414
-1413
-1414
-1413
-1412
-1412
-1411
-1412
-1412
-1413
-1414
-1413
-1413
-1413
-1412
-1412
-1411
-1412
-1413
-1413
-1414
-1414
-1414
-1414
-1414
-1413
-1414
-1415
-1415
-1415
-1415
-1415
-1415
-1415
-1414
-1415
-1414
-1414
-1414
-1414
-1414
-1414
-1415
-1415
-1415
-1414
-1414
-1415
-1416
-1415
-1415
-1416
-1415
-1415
-1414
-1413
-1413
-1414
-1414
-1415
-1415
-1416
-1417
-1415
-1415
-1415
-1414
-1415
-1415
-1416
-1417
-1416
-1415
-1414
-1412
-1412
-1411
-1411
-1412
-1412
-1413
-1412
-1411
-1408
-1405
-1403
-1403
-1403
-1404
-1403
-1404
-1405
-1405
-1403
-1399
-1396
-1393
-1392
-1392
-1393
-1397
-1399
-1401
-1402
-1404
-1405
-1407
-1407
-1408
-1408
-1409
-1410
-1411
-1413
-1415
-1415
-1416
-1418
-1420
-1420
-1420
-1420
-1421
-1421
-1420
-1421
-1422
-1423
-1423
-1424
-1424
-1423
-1423
-1422
-1421
-1420
-1421
-1423
-1423
-1425
-1425
-1424
-1423
-1425
-1427
-1430
-1436
-1444
-1452
-1459
-1465
-1469
-1468
-1460
-1445
-1426
-1400
-1362
-1312
-1253
-1190
-1128
-1070
-1011
-952
-901
-861
-826
-800
-786
-796
-831
-879
-935
-1007
-1091
-1175
-1259
-1335
-1401
-1433
-1442
-1445
-1440
-1434
-1427
-1423
-1417
-1409
-1403
-1398
-1394
-1392
-1391
-1391
-1391
-1392
-1393
-1394
-1394
-1393
-1394
-1394
-1393
-1392
-1393
-1393
-1393
-1393
-1393
-1392
-1392
-1391
-1389
-1388
-1386
-1385
-1385
-1385
-1385
-1384
-1383
-1382
-1381
-1380
-1378
-1378
-1377
-1376
-1376
-1376
-1374
-1372
-1370
-1369
-1367
-1366
-1366
-1365
-1363
-1362
-1360
-1358
-1356
-1355
-1354
-1352
-1351
-1349
-1347
-1345
-1343
-1341
-1339
-1337
-1336
-1334
-1332
-1330
-1328
-1325
-1322
-1319
-1315
-1311
-1307
-1305
-1303
-1301
-1298
-1294
-1291
-1287
-1284
-1280
-1277
-1273
-1270
-1267
-1264
-1262
-1260
-1257
-1254
-1252
-1251
-1248
-1246
-1245
-1243
-1242
-1240
-1238
-1237
-1237
-1237
-1238
-1240
-1242
-1245
-1247
-1250
-1251
-1255
-1259
-1264
-1269
-1275
-1281
-1288
-1294
-1300
-1306
-1313
-1318
-1324
-1332
-1338
-1343
-1348
-1352
-1356
-1360
-1363
-1366
-1370
-1373
-1377
-1379
-1383
-1385
-1387
-1388
-1388
-1389
-1390
-1391
-1392
-1394
-1395
-1396
-1397
-1397
-1395
-1396
-1396
-1396
-1397
-1398
-1398
-1398
-1398
-1398
-1397
-1397
-1396
-1396
-1397
-1397
-1397
-1397
-1396
-1396
-1396
-1395
-1395
-1395
-1396
-1397
-1397
-1396
-1395
-1395
-1394
-1395
-1396
-1395
-1395
-1395
-1395
-1394
-1393
-1392
-1390
-1389
-1390
-1393
-1395
-1396
-1397
-1397
-1397
-1396
-1395
-1395
-1394
-1395
-1395
-1394
-1395
-1395
-1395
-1396
-1395
-1395
-1396
-1396
-1396
-1397
-1398
-1398
-1399
-1398
-1398
-1397
-1398
-1399
-1400
-1400
-1401
-1401
-1401
-1400
-1399
-1400
-1401
-1402
-1402
-1402
-1404
-1404
-1404
-1402
-1402
-1402
-1402
-1403
-1403
-1404
-1404
-1404
-1403
-1404
-1404
-1405
-1406
-1405
-1406
-1407
-1408
-1408
-1407
-1406
-1405
-1404
-1405
-1406
-1408
-1408
-1409
-1409
-1410
-1408
-1407
-1408
-1409
-1408
-1409
-1409
-1409
-1409
-1409
-1408
-1407
-1407
-1408
-1409
-1409
-1410
-1409
-1408
-1409
-1409
-1409
-1409
-1409
-1410
-1410
-1410
-1409
-1410
-1410
-1410
-1409
-1409
-1409
-1409
-1410
-1410
-1410
-1410
-1410
-1410
-1409
-1409
-1409
-1410
-1410
-1411
-1411
-1411
-1410
-1409
-1409
-1409
-1409
-1410
-1410
-1411
-1411
-1410
-1409
-1408
-1408
-1408
-1410
-1410
-1411
-1412
-1413
-1412
-1412
-1410
-1410
-1410
-1410
-1411
-1412
-1411
-1411
-1411
-1410
-1410
-1410
-1410
-1411
-1411
-1412
-1413
-1412
-1411
-1410
-1409
-1408
-1408
-1408
-1408
-1409
-1408
-1408
-1407
-1404
-1401
-1399
-1398
-1399
-1400
-1401
-1401
-1401
-1401
-1401
-1399
-1397
-1392
-1388
-1386
-1386
-1390
-1393
-1396
-1397
-1399
-1400
-1401
-1402
-1404
-1405
-1405
-1406
-1407
-1408
-1410
-1411
-1411
-1412
-1414
-1414
-1415
-1415
-1417
-1416
-1417
-1417
-1417
-1418
-1418
-1418
-1419
-1419
-1419
-1419
-1418
-1416
-1416
-1416
-1417
-1417
-1418
-1419
-1419
-1418
-1420
-1423
-1426
-1433
-1440
-1447
-1451
-1456
-1458
-1452
-1440
-1421
-1398
-1366
-1321
-1267
-1209
-1149
-1093
-1040
-987
-942
-906
-870
-841
-821
-813
-833
-871
-920
-982
-1061
-1143
-1230
-1308
-1377
-1416
-1430
-1437
-1445
-1447
-1443
-1437
-1430
-1423
-1414
-1406
-1402
-1397
-1393
-1389
-1388
-1388
-1389
-1391
-1391
-1391
-1390
-1389
-1388
-1387
-1387
-1387
-1387
-1386
-1386
-1386
-1386
-1385
-1385
-1384
-1382
-1381
-1381
-1380
-1380
-1380
-1379
-1377
-1375
-1374
-1372
-1371
-1371
-1372
-1372
-1371
-1370
-1369
-1366
-1365
-1364
-1362
-1361
-1361
-1360
-1359
-1357
-1355
-1352
-1350
-1348
-1347
-1346
-1346
-1345
-1344
-1342
-1340
-1337
-1334
-1332
-1330
-1329
-1327
-1325
-1323
-1320
-1317
-1314
-1311
-1308
-1304
-1302
-1300
-1297
-1295
-1292
-1288
-1284
-1280
-1277
-1274
-1272
-1269
-1268
-1266
-1262
-1259
-1256
-1253
-1252
-1251
-1250
-1249
-1248
-1247
-1246
-1245
-1243
-1243
-1242
-1242
-1243
-1244
-1247
-1249
-1252
-1255
-1259
-1264
-1269
-1273
-1278
-1284
-1290
-1297
-1302
-1307
-1312
-1318
-1323
-1329
-1335
-1340
-1345
-1350
-1354
-1357
-1360
-1363
-1366
-1369
-1372
-1376
-1379
-1381
-1382
-1383
-1384
-1385
-1387
-1389
-1390
-1391
-1391
-1391
-1391
-1392
-1392
-1392
-1393
-1395
-1395
-1395
-1396
-1396
-1396
-1396
-1395
-1394
-1395
-1394
-1395
-1394
-1394
-1394
-1393
-1392
-1393
-1393
-1393
-1394
-1394
-1394
-1394
-1394
-1394
-1394
-1393
-1391
-1391
-1391
-1391
-1392
-1393
-1393
-1393
-1392
-1392
-1391
-1391
-1392
-1392
-1392
-1392
-1392
-1392
-1391
-1391
-1392
-1392
-1393
-1393
-1395
-1396
-1397
-1397
-1397
-1396
-1395
-1396
-1397
-1398
-1399
-1399
-1399
-1400
-1399
-1399
-1399
-1399
-1400
-1401
-1401
-1402
-1402
-1402
-1402
-1402
-1402
-1402
-1403
-1404
-1404
-1405
-1405
-1404
-1404
-1404
-1404
-1405
-1407
-1407
-1408
-1408
-1409
-1408
-1408
-1406
-1406
-1406
-1407
-1408
-1408
-1409
-1410
-1411
-1411
-1410
-1410
-1410
-1411
-1411
-1411
-1411
-1411
-1411
-1410
-1409
-1410
-1410
-1410
-1411
-1412
-1412
-1411
-1412
-1412
-1411
-1412
-1411
-1412
-1413
-1413
-1413
-1413
-1413
-1413
-1412
-1413
-1413
-1413
-1413
-1413
-1414
-1415
-1414
-1412
-1412
-1412
-1412
-1413
-1414
-1415
-1415
-1414
-1414
-1414
-1414
-1413
-1413
-1414
-1415
-1415
-1415
-1415
-1415
-1414
-1413
-1413
-1414
-1415
-1415
-1417
-1416
-1416
-1416
-1415
-1414
-1413
-1414
-1415
-1416
-1416
-1417
-1416
-1415
-1415
-1415
-1414
-1414
-1415
-1416
-1416
-1417
-1416
-1416
-1416
-1416
-1416
-1417
-1417
-1416
-1415
-1414
-1414
-1412
-1411
-1411
-1410
-1410
-1410
-1409
-1407
-1405
-1404
-1403
-1402
-1402
-1402
-1403
-1404
-1404
-1403
-1401
-1397
-1395
-1393
-1392
-1393
-1397
-1400
-1402
-1404
-1407
-1408
-1409
-1408
-1409
-1410
-1410
-1412
-1413
-1415
-1417
-1418
-1419
-1419
-1419
-1420
-1420
-1422
-1423
-1424
-1423
-1423
-1423
-1422
-1422
-1422
-1422
-1423
-1424
-1423
-1424
-1424
-1424
-1423
-1423
-1423
-1424
-1425
-1426
-1428
-1432
-1435
-1440
-1447
-1454
-1460
-1466
-1469
-1464
-1452
-1433
-1410
-1376
-1328
-1269
-1207
-1145
-1086
-1029
-971
-917
-873
-836
-806
-786
-787
-814
-861
-914
-983
-1065
-1150
-1234
-1313
-1384
-1426
-1440
-1444
-1443
-1438
-1433
-1427
-1421
-1412
-1404
-1400
-1397
-1395
-1393
-1393
-1394
-1395
-1394
-1394
-1394
-1394
-1394
-1394
-1393
-1393
-1393
-1394
-1393
-1392
-1391
-1391
-1391
-1391
-1391
-1389
-1388
-1388
-1387
-1385
-1384
-1384
-1384
-1383
-1382
-1381
-1379
-1378
-1377
-1377
-1376
-1375
-1374
-1373
-1372
-1371
-1370
-1368
-1366
-1365
-1363
-1362
-1361
-1360
-1359
-1358
-1356
-1354
-1352
-1350
-1348
-1346
-1345
-1344
-1342
-1340
-1338
-1336
-1332
-1330
-1327
-1324
-1323
-1321
-1318
-1315
-1312
-1309
-1305
-1301
-1298
-1295
-1292
-1289
-1286
-1283
-1279
-1275
-1272
-1269
-1265
-1262
-1261
-1258
-1257
-1255
-1253
-1250
-1248
-1244
-1242
-1242
-1242
-1242
-1242
-1241
-1242
-1241
-1241
-1242
-1244
-1247
-1250
-1254
-1258
-1263
-1268
-1273
-1277
-1282
-1288
-1294
-1300
-1307
-1314
-1320
-1325
-1331
-1337
-1342
-1346
-1351
-1356
-1361
-1365
-1369
-1372
-1375
-1377
-1379
-1381
-1382
-1385
-1387
-1389
-1391
-1392
-1392
-1392
-1392
-1393
-1394
-1395
-1396
-1396
-1397
-1397
-1397
-1397
-1397
-1397
-1396
-1396
-1397
-1398
-1399
-1400
-1398
-1398
-1397
-1396
-1396
-1396
-1397
-1396
-1397
-1397
-1396
-1395
-1395
-1394
-1395
-1395
-1394
-1394
-1394
-1394
-1394
-1394
-1395
-1395
-1395
-1394
-1394
-1394
-1394
-1394
-1394
-1393
-1393
-1393
-1394
-1395
-1396
-1396
-1397
-1397
-1396
-1395
-1395
-1395
-1396
-1397
-1396
-1397
-1397
-1398
-1398
-1397
-1396
-1396
-1396
-1398
-1399
-1400
-1400
-1400
-1400
-1400
-1398
-1398
-1398
-1399
-1400
-1402
-1403
-1403
-1403
-1402
-1402
-1401
-1402
-1403
-1404
-1404
-1405
-1405
-1406
-1405
-1405
-1406
-1406
-1407
-1407
-1406
-1406
-1406
-1406
-1405
-1406
-1406
-1407
-1407
-1407
-1408
-1408
-1407
-1407
-1407
-1406
-1407
-1408
-1408
-1408
-1409
-1408
-1407
-1407
-1407
-1406
-1407
-1408
-1409
-1409
-1409
-1409
-1408
-1408
-1408
-1409
-1408
-1409
-1410
-1410
-1411
-1411
-1410
-1409
-1408
-1409
-1409
-1410
-1411
-1410
-1411
-1410
-1409
-1409
-1409
-1409
-1409
-1409
-1410
-1411
-1412
-1412
-1412
-1412
-1411
-1410
-1409
-1409
-1409
-1410
-1411
-1411
-1411
-1411
-1411
-1410
-1410
-1410
-1412
-1412
-1411
-1411
-1410
-1410
-1410
-1410
-1410
-1411
-1411
-1411
-1410
-1410
-1411
-1411
-1410
-1410
-1410
-1411
-1411
-1412
-1412
-1412
-1411
-1410
-1409
-1408
-1409
-1408
-1408
-1408
-1408
-1407
-1407
-1406
-1403
-1401
-1400
-1400
-1401
-1401
-1401
-1400
-1401
-1400
-1399
-1395
-1391
-1388
-1386
-1385
-1387
-1390
-1393
-1395
-1397
-1397
-1398
-1400
-1402
-1403
-1403
-1404
-1405
-1406
-1408
-1410
-1411
-1412
-1414
-1414
-1414
-1415
-1416
-1415
-1415
-1416
-1416
-1416
-1417
-1417
-1419
-1419
-1418
-1417
-1418
-1417
-1417
-1418
-1419
-1419
-1419
-1420
-1419
-1419
-1419
-1422
-1425
-1429
-1436
-1443
-1449
-1453
-1455
-1453
-1443
-1427
-1407
-1380
-1340
-1288
-1231
-1171
-1111
-1058
-1005
-956
-916
-880
-848
-828
-813
-822
-855
-901
-958
-1032
-1111
-1196
-1278
-1350
-1402
-1424
-1433
-1443
-1449
-1447
-1442
-1435
-1428
-1421
-1411
-1404
-1399
-1394
-1390
-1389
-1389
-1389
-1389
-1390
-1390
-1390
-1389
-1389
-1388
-1387
-1387
-1388
-1387
-1386
-1386
-1385
-1384
-1383
-1382
-1382
-1382
-1382
-1381
-1381
-1380
-1378
-1377
-1376
-1374
-1373
-1373
-1373
-1373
-1372
-1370
-1369
-1367
-1365
-1363
-1363
-1362
-1361
-1361
-1360
-1359
-1357
-1355
-1353
-1352
-1351
-1351
-1349
-1348
-1345
-1344
-1342
-1339
-1337
-1335
-1332
-1332
-1331
-1329
-1327
-1325
-1322
-1319
-1315
-1312
-1309
-1306
-1303
-1301
-1299
-1296
-1292
-1289
-1285
-1282
-1279
-1276
-1274
-1271
-1269
-1267
-1264
-1261
-1258
-1256
-1254
-1252
-1250
-1249
-1248
-1247
-1246
-1244
-1242
-1241
-1242
-1242
-1243
-1245
-1247
-1250
-1252
-1254
-1257
-1261
-1265
-1269
-1274
-1280
-1285
-1291
-1298
-1303
-1308
-1314
-1319
-1325
-1331
-1336
-1341
-1345
-1350
-1353
-1356
-1360
-1363
-1367
-1370
-1373
-1375
-1377
-1379
-1381
-1382
-1383
-1384
-1385
-1386
-1389
-1389
-1388
-1389
-1390
-1391
-1390
-1390
-1391
-1391
-1391
-1392
-1392
-1392
-1392
-1391
-1391
-1391
-1391
-1392
-1392
-1392
-1391
-1390
-1390
-1389
-1389
-1390
-1390
-1390
-1390
-1390
-1390
-1389
-1389
-1387
-1387
-1387
-1387
-1387
-1388
-1388
-1388
-1388
-1387
-1386
-1385
-1386
-1387
-1388
-1388
-1388
-1387
-1387
-1388
-1387
-1387
-1388
-1388
-1388
-1389
-1390
-1390
-1390
-1389
-1389
-1389
-1391
-1391
-1392
-1392
-1393
-1393
-1392
-1392
-1391
-1391
-1393
-1394
-1395
-1396
-1396
-1397
-1396
-1396
-1395
-1395
-1396
-1397
-1398
-1398
-1399
-1399
-1398
-1397
-1398
-1397
-1397
-1398
-1399
-1400
-1400
-1401
-1400
-1399
-1399
-1399
-1399
-1400
-1401
-1402
-1403
-1404
-1403
-1402
-1402
-1402
-1402
-1402
-1402
-1402
-1402
-1403
-1403
-1403
-1403
-1403
-1403
-1403
-1403
-1404
-1404
-1404
-1404
-1404
-1403
-1403
-1403
-1404
-1404
-1404
-1405
-1405
-1404
-1403
-1403
-1402
-1402
-1403
-1405
-1405
-1405
-1405
-1405
-1403
-1403
-1403
-1402
-1403
-1404
-1405
-1406
-1405
-1405
-1405
-1404
-1404
-1404
-1405
-1404
-1405
-1406
-1406
-1406
-1406
-1405
-1404
-1405
-1405
-1405
-1406
-1407
-1406
-1406
-1405
-1405
-1405
-1406
-1407
-1407
-1406
-1406
-1405
-1405
-1404
-1404
-1402
-1402
-1402
-1402
-1402
-1402
-1401
-1399
-1397
-1395
-1394
-1393
-1394
-1394
-1393
-1394
-1394
-1393
-1391
-1387
-1384
-1381
-1381
-1381
-1383
-1386
-1388
-1390
-1390
-1392
-1393
-1395
-1397
-1398
-1399
-1399
-1400
-1401
-1402
-1404
-1405
-1407
-1409
-1410
-1411
-1411
-1412
-1412
-1412
-1411
-1411
-1413
-1414
-1414
-1413
-1414
-1413
-1412
-1412
-1412
-1412
-1413
-1413
-1414
-1414
-1414
-1414
-1414
-1416
-1417
-1420
-1426
-1433
-1442
-1449
-1454
-1457
-1456
-1447
-1432
-1412
-1386
-1347
-1295
-1237
-1174
-1113
-1056
-999
-945
-898
-858
-824
-799
-785
-793
-828
-876
-931
-1004
-1087
-1173
-1256
-1333
-1396
-1421
-1431
-1436
-1435
-1430
-1424
-1418
-1413
-1405
-1397
-1392
-1389
-1386
-1384
-1384
-1384
-1385
-1386
-1386
-1385
-1385
-1385
-1384
-1384
-1384
-1384
-1384
-1383
-1384
-1383
-1382
-1380
-1379
-1378
-1379
-1379
-1379
-1379
-1378
-1376
-1376
-1375
-1373
-1371
-1370
-1370
-1369
-1368
-1367
-1366
-1365
-1364
-1362
-1360
-1359
-1358
-1357
-1357
-1357
-1356
-1354
-1354
-1351
-1349
-1347
-1345
-1344
-1343
-1342
-1340
-1337
-1335
-1333
-1331
-1329
-1327
-1325
-1324
-1322
-1320
-1316
-1314
-1310
-1306
-1303
-1302
-1299
-1296
-1294
-1290
-1287
-1282
-1278
-1275
-1272
-1270
-1268
-1266
-1264
-1261
-1258
-1255
-1251
-1248
-1246
-1245
-1244
-1242
-1241
-1240
-1239
-1237
-1236
-1234
-1234
-1235
-1236
-1237
-1239
-1241
-1243
-1247
-1250
-1254
-1260
-1265
-1271
-1278
-1284
-1290
-1296
-1302
-1307
-1312
-1317
-1323
-1329
-1335
-1341
-1346
-1351
-1355
-1357
-1360
-1363
-1366
-1368
-1372
-1375
-1377
-1379
-1380
-1381
-1382
-1384
-1385
-1386
-1388
-1389
-1389
-1390
-1390
-1390
-1389
-1389
-1390
-1391
-1391
-1391
-1391
-1391
-1391
-1391
-1391
-1391
-1391
-1391
-1390
-1390
-1390
-1390
-1389
-1388
-1388
-1388
-1388
-1388
-1388
-1388
-1389
-1388
-1387
-1387
-1387
-1386
-1386
-1387
-1388
-1388
-1388
-1387
-1386
-1386
-1386
-1386
-1387
-1387
-1387
-1387
-1387
-1387
-1386
-1385
-1384
-1385
-1387
-1388
-1389
-1389
-1389
-1389
-1388
-1388
-1388
-1388
-1388
-1389
-1390
-1391
-1391
-1390
-1389
-1390
-1389
-1389
-1390
-1392
-1393
-1393
-1394
-1393
-1392
-1391
-1391
-1391
-1391
-1392
-1393
-1395
-1396
-1397
-1396
-1396
-1395
-1394
-1395
-1396
-1396
-1396
-1397
-1397
-1397
-1397
-1397
-1397
-1397
-1398
-1399
-1399
-1399
-1399
-1397
-1397
-1398
-1397
-1398
-1398
-1399
-1398
-1399
-1399
-1399
-1399
-1399
-1399
-1400
-1401
-1400
-1399
-1399
-1400
-1400
-1399
-1399
-1399
-1399
-1400
-1400
-1399
-1398
-1398
-1398
-1398
-1399
-1399
-1400
-1401
-1401
-1402
-1402
-1400
-1399
-1399
-1399
-1399
-1400
-1400
-1401
-1402
-1403
-1402
-1401
-1401
-1400
-1400
-1401
-1402
-1401
-1401
-1401
-1400
-1399
-1399
-1400
-1400
-1401
-1402
-1402
-1402
-1402
-1402
-1401
-1401
-1400
-1401
-1400
-1400
-1401
-1400
-1401
-1401
-1400
-1399
-1400
-1400
-1401
-1401
-1402
-1403
-1402
-1402
-1400
-1399
-1399
-1399
-1399
-1400
-1400
-1398
-1397
-1396
-1396
-1395
-1395
-1394
-1393
-1392
-1392
-1392
-1392
-1392
-1391
-1389
-1388
-1388
-1386
-1383
-1380
-1377
-1376
-1375
-1377
-1381
-1383
-1385
-1387
-1389
-1390
-1391
-1393
-1393
-1393
-1393
-1395
-1396
-1400
-1401
-1402
-1404
-1404
-1404
-1404
-1404
-1406
-1407
-1407
-1406
-1407
-1408
-1407
-1406
-1406
-1406
-1407
-1407
-1408
-1408
-1409
-1409
-1409
-1408
-1408
-1407
-1408
-1409
-1413
-1415
-1419
-1426
-1432
-1437
-1442
-1447
-1448
-1441
-1429
-1410
-1386
-1350
-1302
-1246
-1185
-1124
-1069
-1016
-964
-920
-882
-847
-821
-802
-799
-825
-869
-921
-989
-1069
-1152
-1236
-1312
-1379
-1410
-1421
-1429
-1434
-1433
-1428
-1422
-1417
-1412
-1404
-1396
-1389
-1385
-1382
-1381
-1382
-1382
-1382
-1382
-1381
-1379
-1378
-1378
-1379
-1380
-1380
-1380
-1379
-1378
-1377
-1375
-1374
-1375
-1374
-1374
-1374
-1373
-1372
-1370
-1369
-1368
-1368
-1367
-1365
-1365
-1365
-1364
-1364
-1363
-1362
-1360
-1359
-1358
-1357
-1356
-1355
-1353
-1352
-1351
-1350
-1349
-1347
-1346
-1345
-1344
-1343
-1341
-1339
-1338
-1336
-1334
-1331
-1327
-1327
-1327
-1325
-1323
-1320
-1318
-1314
-1312
-1310
-1308
-1306
-1303
-1302
-1299
-1296
-1293
-1289
-1286
-1283
-1279
-1276
-1273
-1271
-1269
-1266
-1262
-1260
-1256
-1253
-1250
-1248
-1247
-1246
-1244
-1242
-1241
-1239
-1238
-1238
-1237
-1237
-1236
-1237
-1238
-1239
-1240
-1240
-1242
-1244
-1248
-1253
-1258
-1263
-1268
-1273
-1278
-1284
-1288
-1293
-1300
-1306
-1312
-1318
-1323
-1329
-1334
-1338
-1342
-1345
-1348
-1353
-1357
-1362
-1364
-1366
-1369
-1371
-1372
-1373
-1376
-1378
-1379
-1380
-1382
-1383
-1384
-1385
-1385
-1386
-1386
-1386
-1386
-1387
-1387
-1387
-1387
-1387
-1386
-1387
-1388
-1388
-1389
-1388
-1388
-1388
-1387
-1386
-1386
-1385
-1385
-1385
-1386
-1386
-1386
-1387
-1387
-1387
-1385
-1384
-1383
-1384
-1385
-1386
-1386
-1386
-1385
-1385
-1384
-1384
-1384
-1384
-1385
-1386
-1387
-1386
-1385
-1384
-1384
-1384
-1384
-1385
-1387
-1387
-1387
-1386
-1386
-1386
-1385
-1385
-1385
-1387
-1388
-1388
-1389
-1389
-1389
-1389
-1389
-1389
-1390
-1391
-1391
-1391
-1390
-1390
-1389
-1389
-1390
-1391
-1393
-1394
-1395
-1395
-1395
-1395
-1395
-1393
-1393
-1394
-1395
-1395
-1395
-1396
-1396
-1396
-1396
-1395
-1395
-1395
-1395
-1397
-1398
-1399
-1398
-1397
-1397
-1396
-1396
-1397
-1397
-1398
-1399
-1399
-1399
-1399
-1398
-1398
-1397
-1397
-1398
-1398
-1399
-1399
-1399
-1399
-1399
-1398
-1397
-1397
-1397
-1397
-1398
-1399
-1399
-1399
-1400
-1400
-1399
-1398
-1398
-1399
-1399
-1399
-1399
-1399
-1397
-1397
-1398
-1398
-1397
-1398
-1398
-1398
-1399
-1399
-1399
-1398
-1398
-1398
-1397
-1398
-1400
-1400
-1400
-1399
-1398
-1398
-1397
-1397
-1397
-1397
-1396
-1396
-1396
-1396
-1395
-1393
-1391
-1388
-1388
-1387
-1387
-1388
-1389
-1388
-1387
-1386
-1384
-1380
-1377
-1374
-1373
-1372
-1374
-1378
-1380
-1381
-1382
-1384
-1386
-1388
-1389
-1390
-1390
-1391
-1392
-1392
-1394
-1396
-1397
-1399
-1401
-1402
-1403
-1404
-1404
-1404
-1404
-1404
-1405
-1405
-1405
-1405
-1406
-1406
-1406
-1404
-1404
-1404
-1404
-1405
-1406
-1406
-1406
-1406
-1405
-1404
-1404
-1405
-1409
-1413
-1420
-1428
-1436
-1442
-1445
-1446
-1440
-1428
-1409
-1387
-1354
-1308
-1253
-1192
-1132
-1074
-1019
-964
-917
-879
-844
-816
-796
-789
-808
-847
-898
-962
-1042
-1125
-1213
-1293
-1365
-1401
-1414
-1420
-1427
-1428
-1424
-1419
-1413
-1407
-1398
-1391
-1385
-1380
-1377
-1375
-1375
-1376
-1377
-1378
-1379
-1378
-1377
-1376
-1375
-1374
-1375
-1375
-1376
-1375
-1375
-1373
-1372
-1371
-1371
-1370
-1370
-1370
-1369
-1369
-1368
-1367
-1366
-1364
-1364
-1363
-1363
-1362
-1361
-1360
-1359
-1358
-1356
-1354
-1353
-1353
-1352
-1351
-1350
-1349
-1349
-1346
-1344
-1343
-1341
-1340
-1338
-1337
-1336
-1335
-1333
-1331
-1329
-1327
-1325
-1324
-1322
-1320
-1318
-1316
-1312
-1308
-1304
-1302
-1300
-1298
-1297
-1296
-1293
-1289
-1286
-1282
-1279
-1275
-1271
-1269
-1266
-1264
-1261
-1259
-1256
-1253
-1250
-1247
-1245
-1243
-1242
-1241
-1239
-1237
-1235
-1234
-1232
-1231
-1231
-1231
-1232
-1233
-1234
-1236
-1238
-1240
-1242
-1246
-1251
-1256
-1262
-1267
-1272
-1279
-1284
-1289
-1295
-1301
-1307
-1312
-1318
-1323
-1328
-1333
-1337
-1341
-1345
-1349
-1353
-1358
-1362
-1365
-1368
-1370
-1372
-1373
-1374
-1375
-1376
-1377
-1378
-1380
-1381
-1382
-1382
-1382
-1381
-1382
-1382
-1382
-1383
-1384
-1385
-1385
-1385
-1384
-1384
-1383
-1383
-1384
-1385
-1384
-1385
-1385
-1385
-1383
-1383
-1382
-1381
-1382
-1384
-1384
-1383
-1383
-1382
-1381
-1381
-1381
-1380
-1379
-1380
-1381
-1381
-1381
-1381
-1381
-1381
-1381
-1380
-1379
-1380
-1380
-1381
-1381
-1382
-1381
-1381
-1381
-1382
-1383
-1382
-1383
-1383
-1383
-1383
-1383
-1382
-1382
-1383
-1384
-1384
-1385
-1385
-1385
-1385
-1386
-1386
-1386
-1387
-1388
-1388
-1389
-1388
-1388
-1387
-1387
-1388
-1388
-1389
-1390
-1391
-1391
-1391
-1391
-1390
-1391
-1392
-1391
-1392
-1393
-1394
-1394
-1394
-1394
-1393
-1393
-1392
-1393
-1393
-1394
-1395
-1396
-1396
-1395
-1394
-1394
-1393
-1393
-1393
-1394
-1395
-1397
-1398
-1397
-1397
-1397
-1396
-1395
-1396
-1396
-1396
-1396
-1396
-1396
-1396
-1396
-1396
-1396
-1396
-1396
-1396
-1397
-1397
-1397
-1398
-1398
-1398
-1397
-1396
-1397
-1397
-1397
-1397
-1398
-1398
-1397
-1397
-1397
-1397
-1397
-1397
-1398
-1399
-1399
-1398
-1397
-1396
-1397
-1397
-1397
-1397
-1398
-1397
-1397
-1397
-1397
-1396
-1397
-1397
-1398
-1398
-1399
-1399
-1399
-1398
-1398
-1398
-1398
-1399
-1399
-1400
-1400
-1400
-1399
-1398
-1398
-1398
-1397
-1396
-1397
-1399
-1400
-1400
-1399
-1398
-1398
-1398
-1397
-1398
-1398
-1398
-1397
-1398
-1397
-1396
-1395
-1394
-1393
-1393
-1393
-1392
-1390
-1388
-1387
-1386
-1385
-1384
-1384
-1383
-1384
-1385
-1385
-1383
-1379
-1376
-1374
-1373
-1374
-1377
-1379
-1381
-1383
-1385
-1386
-1387
-1388
-1388
-1389
-1390
-1391
-1393
-1395
-1397
-1398
-1398
-1399
-1399
-1400
-1401
-1402
-1402
-1402
-1403
-1404
-1402
-1402
-1403
-1403
-1403
-1404
-1405
-1405
-1405
-1404
-1403
-1403
-1402
-1402
-1403
-1404
-1405
-1407
-1409
-1412
-1417
-1424
-1431
-1437
-1443
-1449
-1450
-1442
-1428
-1407
-1382
-1343
-1291
-1232
-1169
-1107
-1049
-990
-932
-881
-839
-803
-776
-759
-768
-805
-853
-909
-982
-1067
-1152
-1234
-1311
-1378
-1410
-1422
-1427
-1425
-1420
-1413
-1405
-1398
-1389
-1383
-1380
-1377
-1375
-1374
-1373
-1374
-1374
-1374
-1374
-1374
-1374
-1374
-1375
-1376
-1375
-1374
-1372
-1371
-1371
-1371
-1371
-1371
-1371
-1370
-1369
-1368
-1367
-1366
-1365
-1364
-1363
-1362
-1362
-1362
-1361
-1359
-1358
-1356
-1356
-1356
-1354
-1354
-1353
-1352
-1350
-1348
-1345
-1343
-1343
-1342
-1342
-1342
-1342
-1341
-1338
-1337
-1334
-1332
-1330
-1329
-1328
-1326
-1324
-1322
-1319
-1316
-1314
-1311
-1309
-1308
-1307
-1305
-1302
-1299
-1295
-1291
-1288
-1285
-1282
-1280
-1276
-1274
-1271
-1267
-1265
-1262
-1258
-1254
-1251
-1249
-1247
-1245
-1243
-1240
-1237
-1234
-1232
-1230
-1229
-1228
-1228
-1227
-1225
-1224
-1224
-1224
-1224
-1225
-1226
-1228
-1231
-1234
-1238
-1242
-1245
-1250
-1255
-1260
-1266
-1272
-1278
-1285
-1291
-1297
-1304
-1309
-1314
-1318
-1324
-1329
-1334
-1338
-1343
-1347
-1351
-1353
-1357
-1359
-1362
-1364
-1368
-1370
-1372
-1372
-1373
-1375
-1375
-1375
-1376
-1377
-1379
-1380
-1381
-1381
-1380
-1380
-1379
-1379
-1380
-1380
-1380
-1381
-1382
-1383
-1382
-1381
-1380
-1380
-1380
-1380
-1379
-1379
-1379
-1379
-1379
-1379
-1380
-1380
-1380
-1380
-1381
-1381
-1380
-1380
-1381
-1381
-1379
-1380
-1380
-1380
-1380
-1380
-1381
-1382
-1382
-1382
-1381
-1380
-1380
-1380
-1380
-1381
-1382
-1381
-1381
-1381
-1380
-1380
-1379
-1380
-1381
-1382
-1383
-1384
-1384
-1384
-1385
-1385
-1384
-1384
-1386
-1386
-1387
-1388
-1388
-1388
-1388
-1388
-1387
-1387
-1389
-1390
-1390
-1391
-1391
-1390
-1390
-1391
-1392
-1392
-1392
-1392
-1391
-1392
-1392
-1392
-1392
-1393
-1394
-1396
-1396
-1396
-1396
-1395
-1395
-1395
-1395
-1395
-1395
-1396
-1397
-1397
-1397
-1397
-1396
-1396
-1396
-1395
-1395
-1397
-1397
-1397
-1398
-1398
-1398
-1398
-1398
-1397
-1398
-1397
-1398
-1398
-1398
-1398
-1398
-1398
-1397
-1396
-1397
-1398
-1399
-1399
-1399
-1399
-1399
-1399
-1398
-1397
-1397
-1398
-1399
-1399
-1400
-1401
-1400
-1400
-1400
-1399
-1399
-1400
-1400
-1400
-1401
-1400
-1400
-1399
-1398
-1398
-1398
-1399
-1399
-1400
-1400
-1401
-1401
-1400
-1399
-1398
-1400
-1401
-1402
-1402
-1401
-1400
-1399
-1398
-1397
-1396
-1396
-1396
-1396
-1395
-1395
-1394
-1392
-1390
-1389
-1388
-1388
-1389
-1389
-1389
-1389
-1388
-1386
-1383
-1379
-1374
-1372
-1372
-1374
-1378
-1381
-1384
-1385
-1387
-1387
-1388
-1388
-1389
-1391
-1392
-1393
-1394
-1397
-1398
-1398
-1399
-1400
-1400
-1401
-1402
-1403
-1405
-1405
-1405
-1405
-1404
-1405
-1406
-1407
-1408
-1407
-1407
-1406
-1405
-1405
-1406
-1406
-1406
-1406
-1406
-1406
-1405
-1406
-1407
-1409
-1414
-1421
-1428
-1435
-1441
-1445
-1445
-1438
-1424
-1404
-1379
-1342
-1293
-1237
-1177
-1117
-1062
-1009
-955
-911
-875
-841
-817
-798
-797
-820
-861
-914
-982
-1064
-1148
-1234
-1313
-1377
-1406
-1418
-1425
-1432
-1430
-1426
-1419
-1413
-1407
-1397
-1391
-1386
-1382
-1378
-1375
-1374
-1374
-1376
-1377
-1377
-1377
-1377
-1376
-1376
-1376
-1374
-1374
-1374
-1373
-1373
-1373
-1372
-1371
-1370
-1370
-1369
-1368
-1366
-1366
-1366
-1366
-1365
-1364
-1363
-1361
-1359
-1359
-1358
-1358
-1358
-1356
-1355
-1354
-1352
-1351
-1349
-1349
-1347
-1347
-1346
-1345
-1343
-1341
-1340
-1338
-1337
-1335
-1334
-1332
-1331
-1330
-1327
-1325
-1324
-1322
-1319
-1317
-1316
-1313
-1310
-1308
-1305
-1303
-1300
-1297
-1294
-1291
-1288
-1286
-1284
-1281
-1277
-1273
-1270
-1267
-1264
-1261
-1259
-1256
-1255
-1252
-1250
-1247
-1245
-1242
-1239
-1238
-1236
-1236
-1235
-1234
-1234
-1233
-1231
-1230
-1228
-1228
-1230
-1233
-1236
-1239
-1243
-1247
-1252
-1255
-1259
-1264
-1270
-1276
-1282
-1288
-1293
-1298
-1304
-1309
-1314
-1320
-1326
-1332
-1337
-1340
-1344
-1347
-1350
-1353
-1355
-1358
-1361
-1365
-1367
-1369
-1370
-1372
-1373
-1373
-1374
-1376
-1377
-1378
-1379
-1379
-1379
-1378
-1379
-1380
-1379
-1380
-1381
-1381
-1382
-1381
-1382
-1381
-1381
-1380
-1380
-1379
-1379
-1379
-1380
-1380
-1380
-1379
-1379
-1378
-1378
-1378
-1378
-1378
-1379
-1379
-1379
-1378
-1378
-1377
-1378
-1379
-1379
-1379
-1379
-1379
-1378
-1378
-1377
-1377
-1377
-1378
-1379
-1379
-1379
-1379
-1380
-1380
-1380
-1380
-1379
-1379
-1380
-1381
-1382
-1382
-1383
-1383
-1383
-1382
-1382
-1382
-1383
-1384
-1384
-1385
-1385
-1385
-1385
-1386
-1385
-1385
-1386
-1388
-1388
-1389
-1389
-1389
-1388
-1387
-1387
-1388
-1389
-1390
-1390
-1391
-1392
-1393
-1392
-1392
-1391
-1391
-1392
-1392
-1393
-1394
-1394
-1394
-1392
-1392
-1392
-1393
-1393
-1394
-1394
-1394
-1394
-1394
-1394
-1394
-1395
-1395
-1395
-1396
-1396
-1396
-1395
-1395
-1395
-1394
-1395
-1395
-1396
-1396
-1397
-1397
-1396
-1396
-1395
-1394
-1394
-1395
-1395
-1395
-1395
-1397
-1397
-1396
-1395
-1394
-1395
-1396
-1397
-1398
-1398
-1398
-1398
-1397
-1397
-1396
-1396
-1396
-1397
-1397
-1397
-1396
-1396
-1397
-1397
-1396
-1397
-1397
-1398
-1398
-1398
-1398
-1398
-1397
-1397
-1396
-1396
-1396
-1397
-1397
-1398
-1399
-1398
-1397
-1397
-1397
-1397
-1397
-1398
-1399
-1399
-1398
-1397
-1396
-1395
-1396
-1396
-1396
-1398
-1399
-1399
-1398
-1398
-1398
-1397
-1397
-1397
-1397
-1398
-1398
-1398
-1398
-1397
-1395
-1394
-1393
-1392
-1392
-1392
-1393
-1393
-1392
-1389
-1387
-1385
-1384
-1384
-1384
-1384
-1384
-1384
-1384
-1382
-1379
-1376
-1373
-1372
-1372
-1374
-1376
-1378
-1380
-1382
-1383
-1385
-1387
-1387
-1387
-1389
-1388
-1390
-1392
-1394
-1395
-1396
-1397
-1398
-1400
-1401
-1401
-1401
-1402
-1403
-1402
-1402
-1401
-1401
-1402
-1403
-1403
-1404
-1404
-1405
-1404
-1403
-1402
-1402
-1402
-1403
-1404
-1404
-1405
-1406
-1409
-1411
-1416
-1421
-1429
-1437
-1443
-1448
-1449
-1442
-1427
-1407
-1382
-1345
-1294
-1234
-1170
-1107
-1048
-990
-934
-883
-842
-806
-777
-761
-767
-800
-847
-901
-972
-1057
-1144
-1229
-1308
-1375
-1408
-1419
-1423
-1421
-1416
-1409
-1404
-1396
-1388
-1381
-1377
-1375
-1373
-1371
-1370
-1371
-1372
-1372
-1373
-1374
-1374
-1374
-1373
-1372
-1371
-1370
-1370
-1370
-1370
-1370
-1369
-1369
-1367
-1366
-1364
-1362
-1362
-1362
-1363
-1364
-1364
-1363
-1362
-1361
-1359
-1358
-1356
-1354
-1354
-1352
-1352
-1352
-1352
-1350
-1348
-1346
-1344
-1343
-1343
-1343
-1342
-1341
-1338
-1336
-1334
-1333
-1331
-1329
-1328
-1327
-1325
-1323
-1321
-1319
-1317
-1314
-1312
-1310
-1308
-1306
-1304
-1302
-1299
-1296
-1292
-1288
-1285
-1284
-1281
-1278
-1275
-1271
-1268
-1264
-1261
-1258
-1254
-1250
-1248
-1246
-1243
-1241
-1239
-1236
-1234
-1231
-1229
-1227
-1226
-1225
-1225
-1224
-1224
-1222
-1220
-1219
-1219
-1220
-1223
-1225
-1229
-1232
-1234
-1238
-1241
-1246
-1251
-1256
-1263
-1269
-1274
-1280
-1286
-1291
-1296
-1302
-1309
-1315
-1321
-1326
-1331
-1335
-1339
-1344
-1347
-1350
-1353
-1356
-1358
-1360
-1363
-1365
-1366
-1367
-1368
-1370
-1372
-1373
-1374
-1374
-1375
-1375
-1375
-1375
-1374
-1375
-1375
-1376
-1377
-1377
-1378
-1377
-1377
-1377
-1376
-1375
-1375
-1376
-1376
-1376
-1376
-1377
-1377
-1377
-1376
-1375
-1375
-1377
-1377
-1376
-1376
-1376
-1375
-1375
-1375
-1375
-1375
-1375
-1376
-1377
-1376
-1376
-1377
-1376
-1375
-1375
-1375
-1376
-1375
-1376
-1377
-1377
-1377
-1376
-1376
-1376
-1376
-1377
-1377
-1378
-1379
-1378
-1378
-1377
-1376
-1377
-1379
-1381
-1383
-1384
-1384
-1384
-1383
-1382
-1382
-1382
-1383
-1383
-1384
-1385
-1385
-1385
-1385
-1385
-1385
-1385
-1385
-1386
-1386
-1387
-1388
-1389
-1388
-1388
-1388
-1387
-1389
-1389
-1389
-1390
-1390
-1389
-1388
-1389
-1389
-1388
-1389
-1391
-1391
-1392
-1392
-1392
-1392
-1391
-1390
-1391
-1392
-1392
-1392
-1394
-1394
-1393
-1391
-1390
-1390
-1390
-1390
-1392
-1393
-1394
-1395
-1394
-1394
-1393
-1393
-1393
-1394
-1394
-1395
-1395
-1395
-1394
-1394
-1394
-1392
-1392
-1393
-1395
-1395
-1396
-1396
-1395
-1395
-1395
-1394
-1394
-1394
-1395
-1396
-1396
-1395
-1395
-1395
-1394
-1394
-1395
-1395
-1395
-1396
-1396
-1396
-1396
-1396
-1395
-1394
-1394
-1393
-1393
-1394
-1396
-1396
-1396
-1396
-1396
-1396
-1396
-1396
-1396
-1396
-1396
-1396
-1395
-1395
-1395
-1395
-1395
-1396
-1396
-1397
-1398
-1397
-1397
-1397
-1396
-1395
-1394
-1393
-1394
-1395
-1395
-1394
-1394
-1393
-1392
-1391
-1391
-1391
-1389
-1388
-1388
-1387
-1387
-1386
-1385
-1384
-1383
-1383
-1383
-1380
-1377
-1373
-1371
-1370
-1371
-1373
-1375
-1378
-1381
-1382
-1384
-1385
-1386
-1387
-1386
-1387
-1388
-1389
-1392
-1394
-1396
-1397
-1398
-1400
-1400
-1400
-1400
-1401
-1402
-1402
-1401
-1402
-1402
-1402
-1401
-1401
-1402
-1402
-1404
-1405
-1404
-1403
-1403
-1402
-1402
-1402
-1401
-1401
-1402
-1404
-1407
-1411
-1417
-1425
-1432
-1437
-1441
-1443
-1438
-1428
-1410
-1387
-1353
-1308
-1254
-1194
-1133
-1077
-1025
-972
-926
-887
-852
-825
-803
-795
-814
-851
-902
-965
-1046
-1130
-1216
-1294
-1363
-1399
-1412
-1421
-1429
-1431
-1427
-1421
-1413
-1406
-1395
-1388
-1384
-1380
-1376
-1374
-1373
-1374
-1374
-1374
-1374
-1374
-1374
-1375
-1374
-1375
-1374
-1373
-1372
-1371
-1370
-1369
-1369
-1368
-1368
-1367
-1367
-1367
-1367
-1365
-1363
-1363
-1362
-1361
-1360
-1361
-1361
-1359
-1358
-1356
-1355
-1354
-1353
-1352
-1351
-1350
-1348
-1348
-1346
-1345
-1343
-1342
-1342
-1341
-1339
-1338
-1337
-1336
-1334
-1332
-1330
-1328
-1326
-1324
-1323
-1321
-1319
-1317
-1316
-1313
-1311
-1308
-1305
-1303
-1301
-1299
-1295
-1293
-1290
-1286
-1282
-1279
-1276
-1274
-1271
-1269
-1267
-1264
-1261
-1257
-1254
-1252
-1249
-1247
-1246
-1243
-1240
-1237
-1236
-1235
-1233
-1232
-1231
-1231
-1231
-1230
-1230
-1230
-1231
-1231
-1233
-1235
-1238
-1241
-1246
-1250
-1255
-1259
-1264
-1270
-1276
-1281
-1287
-1293
-1299
-1304
-1310
-1316
-1321
-1326
-1330
-1335
-1340
-1344
-1348
-1351
-1354
-1357
-1359
-1361
-1363
-1365
-1367
-1369
-1371
-1373
-1374
-1375
-1376
-1375
-1376
-1375
-1376
-1377
-1378
-1379
-1380
-1379
-1379
-1378
-1378
-1378
-1378
-1378
-1379
-1378
-1380
-1379
-1379
-1378
-1377
-1376
-1376
-1377
-1377
-1378
-1378
-1378
-1378
-1377
-1376
-1376
-1376
-1377
-1377
-1377
-1377
-1377
-1376
-1375
-1375
-1373
-1374
-1375
-1375
-1375
-1376
-1376
-1376
-1375
-1376
-1376
-1376
-1377
-1377
-1378
-1378
-1378
-1378
-1378
-1377
-1378
-1378
-1378
-1379
-1379
-1380
-1381
-1381
-1381
-1381
-1382
-1383
-1383
-1383
-1383
-1384
-1384
-1384
-1384
-1384
-1384
-1385
-1385
-1386
-1387
-1387
-1387
-1387
-1387
-1387
-1386
-1387
-1389
-1389
-1389
-1389
-1388
-1388
-1387
-1388
-1388
-1389
-1390
-1391
-1391
-1391
-1390
-1391
-1391
-1389
-1390
-1391
-1391
-1392
-1392
-1392
-1391
-1391
-1391
-1391
-1392
-1392
-1392
-1392
-1391
-1390
-1393
-1394
-1394
-1394
-1394
-1394
-1395
-1396
-1395
-1395
-1395
-1394
-1394
-1393
-1393
-1393
-1394
-1395
-1394
-1394
-1394
-1393
-1392
-1392
-1393
-1393
-1394
-1394
-1394
-1395
-1394
-1394
-1393
-1392
-1393
-1393
-1394
-1394
-1394
-1394
-1395
-1394
-1393
-1393
-1394
-1394
-1394
-1394
-1394
-1394
-1394
-1394
-1393
-1393
-1392
-1393
-1393
-1394
-1394
-1394
-1395
-1394
-1393
-1393
-1393
-1393
-1394
-1394
-1395
-1395
-1395
-1395
-1395
-1394
-1394
-1394
-1394
-1395
-1395
-1395
-1395
-1394
-1393
-1393
-1394
-1393
-1393
-1393
-1394
-1393
-1391
-1390
-1389
-1389
-1390
-1389
-1387
-1386
-1384
-1383
-1382
-1382
-1381
-1380
-1380
-1381
-1381
-1379
-1376
-1372
-1370
-1368
-1369
-1371
-1374
-1376
-1378
-1380
-1382
-1383
-1384
-1384
-1385
-1385
-1386
-1387
-1390
-1392
-1394
-1395
-1396
-1397
-1397
-1397
-1397
-1398
-1399
-1400
-1401
-1401
-1400
-1399
-1399
-1400
-1401
-1401
-1401
-1402
-1401
-1401
-1401
-1400
-1400
-1400
-1401
-1402
-1402
-1404
-1406
-1410
-1415
-1422
-1430
-1437
-1443
-1447
-1445
-1436
-1419
-1398
-1370
-1327
-1272
-1210
-1146
-1085
-1027
-969
-913
-864
-825
-792
-767
-756
-774
-815
-865
-926
-1004
-1090
-1176
-1259
-1335
-1391
-1411
-1419
-1420
-1416
-1412
-1405
-1400
-1392
-1383
-1377
-1374
-1370
-1369
-1369
-1369
-1369
-1370
-1370
-1370
-1371
-1372
-1372
-1372
-1373
-1373
-1371
-1370
-1369
-1369
-1368
-1367
-1366
-1366
-1365
-1365
-1364
-1363
-1362
-1361
-1361
-1360
-1359
-1359
-1359
-1358
-1356
-1354
-1353
-1352
-1351
-1351
-1349
-1347
-1346
-1345
-1344
-1343
-1342
-1341
-1340
-1339
-1338
-1337
-1336
-1334
-1331
-1330
-1328
-1326
-1324
-1323
-1322
-1321
-1319
-1317
-1314
-1311
-1308
-1305
-1302
-1301
-1299
-1297
-1294
-1291
-1288
-1284
-1281
-1277
-1274
-1270
-1268
-1266
-1263
-1260
-1256
-1252
-1248
-1245
-1243
-1241
-1239
-1238
-1236
-1233
-1231
-1229
-1226
-1222
-1221
-1220
-1221
-1221
-1221
-1221
-1221
-1221
-1220
-1221
-1223
-1226
-1230
-1234
-1238
-1243
-1248
-1253
-1259
-1264
-1271
-1277
-1283
-1289
-1296
-1302
-1307
-1312
-1317
-1322
-1327
-1332
-1336
-1342
-1346
-1349
-1352
-1354
-1357
-1358
-1361
-1364
-1367
-1368
-1370
-1371
-1371
-1372
-1373
-1373
-1373
-1374
-1375
-1375
-1376
-1377
