-1247
-1249
-1248
-1249
-1249
-1250
-1251
-1253
-1254
-1253
-1253
-1254
-1254
-1254
-1255
-1255
-1255
-1256
-1256
-1257
-1257
-1256
-1257
-1257
-1257
-1257
-1257
-1258
-1258
-1259
-1258
-1258
-1258
-1257
-1257
-1256
-1256
-1255
-1255
-1255
-1256
-1255
-1253
-1251
-1249
-1248
-1248
-1247
-1248
-1249
-1249
-1248
-1247
-1246
-1243
-1239
-1235
-1234
-1234
-1236
-1239
-1241
-1242
-1244
-1245
-1247
-1249
-1250
-1252
-1252
-1253
-1254
-1255
-1256
-1258
-1260
-1262
-1264
-1264
-1264
-1265
-1266
-1267
-1267
-1266
-1266
-1266
-1267
-1268
-1268
-1268
-1267
-1267
-1267
-1267
-1266
-1267
-1268
-1269
-1269
-1269
-1269
-1271
-1274
-1278
-1284
-1292
-1300
-1308
-1314
-1317
-1312
-1300
-1281
-1258
-1224
-1176
-1118
-1055
-991
-931
-873
-815
-762
-719
-683
-654
-633
-629
-657
-702
-757
-829
-915
-1005
-1097
-1180
-1248
-1277
-1286
-1291
-1295
-1290
-1283
-1277
-1271
-1264
-1257
-1252
-1248
-1245
-1243
-1241
-1240
-1241
-1241
-1242
-1242
-1242
-1242
-1242
-1241
-1241
-1241
-1240
-1240
-1240
-1239
-1239
-1239
-1238
-1237
-1236
-1235
-1234
-1233
-1233
-1233
-1233
-1232
-1231
-1230
-1228
-1227
-1226
-1225
-1224
-1224
-1223
-1222
-1220
-1220
-1218
-1217
-1215
-1214
-1214
-1213
-1212
-1210
-1209
-1207
-1206
-1203
-1201
-1201
-1200
-1198
-1196
-1194
-1192
-1190
-1188
-1185
-1183
-1181
-1179
-1177
-1174
-1172
-1169
-1166
-1163
-1160
-1157
-1154
-1152
-1149
-1147
-1144
-1140
-1137
-1134
-1131
-1128
-1126
-1125
-1122
-1121
-1119
-1117
-1115
-1113
-1111
-1109
-1108
-1108
-1107
-1107
-1106
-1106
-1106
-1106
-1107
-1109
-1112
-1115
-1118
-1123
-1127
-1132
-1136
-1141
-1146
-1151
-1157
-1163
-1170
-1176
-1181
-1186
-1191
-1196
-1200
-1205
-1209
-1214
-1218
-1221
-1224
-1227
-1229
-1231
-1234
-1235
-1237
-1239
-1240
-1243
-1244
-1245
-1246
-1246
-1247
-1248
-1249
-1249
-1250
-1251
-1251
-1252
-1251
-1251
-1250
-1251
-1252
-1252
-1252
-1253
-1253
-1252
-1252
-1250
-1250
-1250
-1251
-1251
-1251
-1252
-1251
-1251
-1250
-1249
-1249
-1249
-1249
-1249
-1249
-1249
-1249
-1248
-1248
-1248
-1247
-1247
-1247
-1248
-1248
-1248
-1247
-1247
-1248
-1247
-1247
-1247
-1248
-1248
-1249
-1249
-1249
-1249
-1249
-1249
-1249
-1249
-1249
-1250
-1251
-1252
-1253
-1253
-1252
-1251
-1251
-1252
-1253
-1253
-1254
-1255
-1255
-1256
-1255
-1255
-1254
-1255
-1256
-1257
-1257
-1258
-1259
-1259
-1258
-1258
-1258
-1258
-1259
-1260
-1260
-1261
-1261
-1261
-1261
-1261
-1261
-1261
-1262
-1263
-1263
-1263
-1264
-1264
-1264
-1263
-1262
-1262
-1263
-1264
-1264
-1265
-1265
-1265
-1265
-1264
-1264
-1264
-1265
-1266
-1266
-1266
-1266
-1266
-1266
-1265
-1265
-1265
-1266
-1267
-1267
-1267
-1267
-1268
-1267
-1267
-1267
-1266
-1267
-1267
-1268
-1268
-1268
-1267
-1267
-1267
-1267
-1267
-1267
-1268
-1269
-1269
-1269
-1270
-1269
-1267
-1267
-1268
-1269
-1269
-1269
-1270
-1269
-1269
-1269
-1268
-1268
-1269
-1270
-1270
-1270
-1270
-1270
-1270
-1269
-1269
-1269
-1269
-1270
-1270
-1271
-1271
-1270
-1270
-1270
-1270
-1270
-1270
-1270
-1270
-1271
-1271
-1271
-1271
-1270
-1269
-1269
-1269
-1269
-1268
-1268
-1267
-1266
-1267
-1265
-1263
-1261
-1260
-1260
-1259
-1260
-1262
-1261
-1260
-1259
-1257
-1255
-1252
-1249
-1247
-1247
-1247
-1250
-1252
-1253
-1255
-1256
-1259
-1260
-1262
-1263
-1264
-1265
-1265
-1267
-1268
-1270
-1272
-1273
-1275
-1276
-1277
-1277
-1278
-1278
-1277
-1277
-1278
-1279
-1279
-1280
-1281
-1280
-1280
-1280
-1280
-1279
-1280
-1280
-1281
-1281
-1281
-1282
-1282
-1282
-1284
-1286
-1291
-1298
-1306
-1315
-1322
-1328
-1331
-1326
-1314
-1296
-1275
-1242
-1195
-1137
-1073
-1008
-945
-884
-824
-767
-721
-682
-651
-630
-629
-659
-704
-758
-830
-919
-1011
-1103
-1187
-1258
-1291
-1299
-1303
-1302
-1295
-1289
-1284
-1278
-1271
-1265
-1260
-1256
-1253
-1252
-1251
-1252
-1252
-1254
-1254
-1255
-1255
-1255
-1254
-1254
-1253
-1253
-1252
-1252
-1252
-1252
-1252
-1251
-1249
-1248
-1247
-1247
-1247
-1246
-1246
-1245
-1244
-1243
-1242
-1241
-1239
-1238
-1238
-1237
-1237
-1235
-1235
-1234
-1232
-1231
-1230
-1228
-1227
-1226
-1225
-1223
-1223
-1221
-1219
-1217
-1216
-1214
-1213
-1212
-1211
-1209
-1206
-1205
-1202
-1199
-1197
-1195
-1194
-1192
-1190
-1188
-1185
-1182
-1178
-1175
-1171
-1168
-1166
-1164
-1161
-1158
-1155
-1152
-1148
-1145
-1142
-1140
-1137
-1135
-1133
-1130
-1128
-1126
-1124
-1121
-1119
-1117
-1116
-1115
-1115
-1114
-1113
-1112
-1112
-1112
-1112
-1113
-1116
-1119
-1121
-1125
-1129
-1133
-1137
-1142
-1147
-1153
-1159
-1165
-1171
-1178
-1184
-1188
-1193
-1199
-1204
-1209
-1214
-1219
-1223
-1227
-1231
-1234
-1237
-1239
-1242
-1244
-1247
-1249
-1251
-1253
-1254
-1256
-1257
-1258
-1258
-1259
-1260
-1261
-1262
-1262
-1263
-1263
-1264
-1263
-1262
-1263
-1264
-1264
-1264
-1265
-1265
-1265
-1264
-1264
-1264
-1264
-1264
-1264
-1264
-1264
-1264
-1263
-1263
-1262
-1262
-1262
-1262
-1262
-1262
-1262
-1262
-1261
-1261
-1261
-1260
-1260
-1260
-1260
-1260
-1260
-1260
-1260
-1260
-1259
-1259
-1259
-1260
-1260
-1261
-1260
-1261
-1261
-1260
-1260
-1261
-1261
-1262
-1263
-1263
-1263
-1263
-1263
-1263
-1263
-1263
-1263
-1264
-1265
-1266
-1266
-1266
-1266
-1266
-1266
-1267
-1267
-1267
-1268
-1269
-1269
-1269
-1270
-1269
-1269
-1269
-1270
-1271
-1272
-1272
-1271
-1271
-1272
-1272
-1271
-1272
-1273
-1273
-1273
-1274
-1274
-1274
-1274
-1274
-1274
-1274
-1274
-1275
-1275
-1275
-1275
-1275
-1276
-1275
-1275
-1275
-1275
-1276
-1276
-1277
-1277
-1276
-1276
-1276
-1276
-1276
-1276
-1277
-1277
-1278
-1278
-1278
-1278
-1277
-1277
-1277
-1277
-1277
-1277
-1278
-1278
-1278
-1278
-1277
-1277
-1278
-1278
-1279
-1279
-1279
-1279
-1279
-1279
-1278
-1278
-1278
-1279
-1279
-1279
-1279
-1280
-1280
-1279
-1279
-1279
-1279
-1279
-1280
-1280
-1281
-1280
-1280
-1280
-1280
-1279
-1279
-1280
-1280
-1280
-1281
-1281
-1281
-1280
-1280
-1280
-1280
-1280
-1280
-1281
-1281
-1281
-1281
-1280
-1280
-1280
-1280
-1280
-1281
-1281
-1281
-1281
-1281
-1281
-1281
-1280
-1281
-1281
-1281
-1282
-1282
-1282
-1282
-1281
-1280
-1279
-1278
-1280
-1279
-1279
-1279
-1278
-1277
-1276
-1275
-1274
-1273
-1272
-1271
-1271
-1270
-1269
-1270
-1269
-1268
-1268
-1267
-1265
-1262
-1259
-1257
-1256
-1257
-1259
-1260
-1262
-1264
-1266
-1268
-1270
-1271
-1272
-1273
-1273
-1273
-1275
-1277
-1279
-1281
-1283
-1284
-1285
-1285
-1285
-1285
-1285
-1286
-1287
-1287
-1288
-1288
-1289
-1289
-1288
-1288
-1288
-1288
-1289
-1289
-1289
-1289
-1289
-1289
-1289
-1289
-1290
-1292
-1295
-1299
-1306
-1314
-1322
-1329
-1334
-1337
-1333
-1323
-1306
-1286
-1254
-1208
-1149
-1085
-1020
-957
-897
-836
-779
-732
-693
-661
-639
-637
-665
-709
-763
-834
-923
-1015
-1105
-1189
-1260
-1295
-1306
-1310
-1309
-1303
-1297
-1291
-1285
-1277
-1271
-1266
-1262
-1259
-1258
-1259
-1259
-1260
-1261
-1261
-1261
-1261
-1261
-1260
-1261
-1260
-1259
-1259
-1259
-1259
-1258
-1258
-1257
-1256
-1255
-1255
-1255
-1254
-1253
-1253
-1252
-1251
-1250
-1248
-1247
-1246
-1246
-1245
-1245
-1244
-1243
-1241
-1240
-1238
-1237
-1237
-1236
-1234
-1233
-1232
-1231
-1229
-1227
-1226
-1224
-1223
-1222
-1221
-1219
-1217
-1216
-1213
-1210
-1208
-1206
-1204
-1203
-1201
-1198
-1196
-1194
-1190
-1187
-1185
-1182
-1179
-1176
-1174
-1172
-1168
-1164
-1161
-1157
-1153
-1151
-1148
-1145
-1143
-1140
-1138
-1135
-1132
-1130
-1127
-1126
-1124
-1123
-1122
-1121
-1119
-1117
-1116
-1115
-1115
-1115
-1116
-1117
-1119
-1121
-1123
-1126
-1130
-1134
-1138
-1143
-1149
-1154
-1161
-1166
-1172
-1179
-1184
-1189
-1195
-1200
-1207
-1212
-1217
-1222
-1227
-1231
-1234
-1237
-1241
-1243
-1247
-1250
-1253
-1255
-1256
-1257
-1259
-1260
-1261
-1262
-1264
-1265
-1266
-1267
-1267
-1268
-1268
-1268
-1268
-1268
-1269
-1270
-1271
-1271
-1272
-1272
-1270
-1270
-1270
-1271
-1270
-1270
-1270
-1271
-1271
-1271
-1269
-1269
-1268
-1269
-1269
-1269
-1269
-1269
-1268
-1268
-1268
-1267
-1266
-1267
-1267
-1267
-1267
-1267
-1267
-1266
-1266
-1265
-1265
-1265
-1266
-1267
-1267
-1266
-1267
-1267
-1267
-1266
-1267
-1267
-1267
-1268
-1268
-1268
-1269
-1269
-1269
-1269
-1269
-1269
-1270
-1271
-1271
-1272
-1272
-1271
-1272
-1272
-1272
-1273
-1274
-1274
-1274
-1275
-1275
-1275
-1275
-1275
-1276
-1277
-1277
-1277
-1277
-1278
-1277
-1278
-1278
-1278
-1279
-1279
-1279
-1280
-1280
-1281
-1281
-1281
-1280
-1279
-1279
-1280
-1281
-1281
-1282
-1282
-1282
-1282
-1281
-1281
-1282
-1282
-1282
-1283
-1283
-1283
-1284
-1284
-1282
-1282
-1282
-1283
-1283
-1283
-1283
-1283
-1284
-1283
-1283
-1283
-1283
-1283
-1283
-1284
-1284
-1285
-1285
-1284
-1284
-1284
-1284
-1284
-1284
-1284
-1284
-1285
-1286
-1286
-1285
-1285
-1285
-1285
-1286
-1286
-1286
-1286
-1285
-1285
-1285
-1285
-1285
-1285
-1286
-1286
-1286
-1286
-1285
-1286
-1286
-1285
-1284
-1285
-1286
-1286
-1286
-1286
-1285
-1286
-1286
-1286
-1286
-1286
-1286
-1286
-1287
-1287
-1286
-1286
-1286
-1286
-1286
-1286
-1287
-1286
-1287
-1287
-1287
-1287
-1286
-1286
-1286
-1287
-1287
-1288
-1288
-1287
-1288
-1287
-1286
-1286
-1285
-1285
-1286
-1285
-1285
-1284
-1283
-1282
-1282
-1281
-1280
-1277
-1276
-1276
-1277
-1277
-1277
-1276
-1275
-1274
-1274
-1272
-1269
-1266
-1264
-1262
-1262
-1265
-1266
-1269
-1270
-1272
-1274
-1276
-1278
-1279
-1280
-1280
-1280
-1282
-1283
-1286
-1287
-1289
-1290
-1292
-1292
-1292
-1292
-1293
-1294
-1294
-1294
-1295
-1295
-1295
-1296
-1295
-1294
-1295
-1295
-1295
-1296
-1297
-1296
-1296
-1297
-1296
-1296
-1297
-1298
-1301
-1305
-1311
-1319
-1327
-1334
-1339
-1343
-1341
-1331
-1316
-1295
-1266
-1223
-1168
-1104
-1039
-976
-916
-857
-800
-752
-712
-679
-655
-647
-668
-711
-763
-832
-918
-1010
-1100
-1184
-1257
-1300
-1313
-1317
-1318
-1313
-1306
-1300
-1295
-1288
-1280
-1275
-1270
-1267
-1265
-1265
-1266
-1267
-1268
-1268
-1269
-1269
-1268
-1267
-1267
-1267
-1267
-1267
-1266
-1266
-1266
-1265
-1264
-1263
-1263
-1262
-1262
-1261
-1261
-1260
-1259
-1259
-1257
-1256
-1255
-1254
-1254
-1253
-1253
-1251
-1251
-1249
-1248
-1246
-1245
-1243
-1243
-1242
-1241
-1241
-1239
-1237
-1235
-1234
-1232
-1231
-1229
-1227
-1226
-1225
-1223
-1221
-1218
-1216
-1214
-1213
-1211
-1208
-1206
-1204
-1202
-1198
-1196
-1192
-1189
-1187
-1185
-1182
-1179
-1176
-1173
-1169
-1165
-1161
-1158
-1156
-1153
-1151
-1148
-1146
-1143
-1140
-1137
-1135
-1134
-1132
-1131
-1129
-1128
-1126
-1125
-1123
-1123
-1122
-1122
-1122
-1124
-1125
-1127
-1130
-1132
-1136
-1139
-1143
-1148
-1154
-1160
-1166
-1171
-1177
-1183
-1188
-1194
-1201
-1207
-1212
-1218
-1223
-1228
-1233
-1237
-1241
-1244
-1247
-1250
-1253
-1256
-1259
-1262
-1263
-1265
-1266
-1267
-1269
-1270
-1272
-1273
-1274
-1275
-1275
-1275
-1276
-1276
-1276
-1277
-1278
-1278
-1279
-1279
-1279
-1279
-1279
-1278
-1277
-1277
-1278
-1279
-1278
-1278
-1279
-1278
-1277
-1277
-1277
-1277
-1277
-1277
-1277
-1277
-1276
-1276
-1275
-1274
-1274
-1274
-1274
-1275
-1275
-1274
-1274
-1274
-1273
-1273
-1273
-1273
-1274
-1274
-1274
-1275
-1275
-1274
-1274
-1274
-1274
-1275
-1275
-1275
-1275
-1276
-1276
-1277
-1276
-1276
-1276
-1276
-1277
-1277
-1278
-1279
-1278
-1278
-1278
-1278
-1279
-1279
-1280
-1280
-1281
-1282
-1282
-1282
-1282
-1282
-1282
-1282
-1283
-1283
-1284
-1284
-1285
-1285
-1284
-1284
-1284
-1284
-1285
-1286
-1286
-1286
-1287
-1286
-1285
-1286
-1286
-1286
-1287
-1287
-1288
-1288
-1288
-1288
-1287
-1286
-1287
-1287
-1288
-1288
-1289
-1288
-1288
-1288
-1288
-1288
-1287
-1287
-1288
-1288
-1289
-1289
-1289
-1289
-1289
-1288
-1288
-1288
-1289
-1289
-1290
-1290
-1290
-1290
-1289
-1289
-1289
-1289
-1290
-1290
-1291
-1290
-1290
-1290
-1290
-1289
-1289
-1289
-1290
-1290
-1291
-1291
-1290
-1290
-1290
-1290
-1290
-1290
-1290
-1291
-1291
-1291
-1291
-1291
-1290
-1289
-1290
-1291
-1291
-1292
-1292
-1292
-1291
-1291
-1290
-1291
-1291
-1291
-1291
-1291
-1291
-1291
-1292
-1291
-1290
-1290
-1290
-1291
-1291
-1292
-1292
-1292
-1291
-1292
-1291
-1290
-1290
-1291
-1291
-1290
-1291
-1291
-1289
-1288
-1287
-1286
-1286
-1287
-1287
-1285
-1283
-1282
-1281
-1280
-1280
-1280
-1280
-1280
-1280
-1279
-1276
-1273
-1270
-1267
-1265
-1264
-1267
-1271
-1274
-1275
-1277
-1278
-1280
-1281
-1281
-1281
-1282
-1283
-1285
-1287
-1290
-1292
-1293
-1293
-1294
-1294
-1294
-1295
-1296
-1297
-1297
-1297
-1298
-1298
-1297
-1297
-1297
-1297
-1297
-1298
-1299
-1298
-1298
-1296
-1297
-1297
-1298
-1298
-1299
-1301
-1304
-1308
-1314
-1321
-1328
-1334
-1340
-1343
-1338
-1327
-1308
-1285
-1251
-1204
-1146
-1083
-1021
-962
-906
-851
-800
-758
-720
-690
-669
-665
-693
-740
-795
-867
-952
-1040
-1130
-1209
-1276
-1305
-1314
-1321
-1325
-1323
-1315
-1308
-1301
-1293
-1284
-1278
-1274
-1272
-1270
-1269
-1270
-1270
-1270
-1269
-1269
-1269
-1268
-1269
-1268
-1269
-1268
-1268
-1267
-1267
-1265
-1265
-1264
-1264
-1264
-1263
-1262
-1260
-1260
-1260
-1258
-1256
-1256
-1256
-1257
-1256
-1256
-1254
-1253
-1251
-1249
-1248
-1247
-1247
-1246
-1245
-1244
-1243
-1241
-1239
-1237
-1236
-1234
-1234
-1233
-1232
-1231
-1229
-1227
-1226
-1223
-1221
-1220
-1219
-1217
-1215
-1212
-1210
-1207
-1205
-1201
-1199
-1197
-1195
-1192
-1189
-1187
-1184
-1181
-1178
-1174
-1171
-1168
-1165
-1163
-1160
-1157
-1154
-1151
-1148
-1146
-1143
-1142
-1140
-1139
-1137
-1135
-1133
-1132
-1129
-1128
-1128
-1127
-1127
-1127
-1128
-1129
-1131
-1132
-1133
-1135
-1139
-1144
-1149
-1154
-1159
-1164
-1169
-1174
-1180
-1185
-1191
-1196
-1203
-1209
-1214
-1219
-1224
-1228
-1232
-1236
-1240
-1244
-1248
-1252
-1254
-1257
-1259
-1260
-1262
-1264
-1265
-1267
-1269
-1271
-1272
-1272
-1273
-1273
-1274
-1274
-1274
-1275
-1276
-1277
-1277
-1277
-1277
-1277
-1277
-1277
-1277
-1278
-1278
-1278
-1278
-1277
-1277
-1277
-1276
-1276
-1276
-1276
-1276
-1276
-1277
-1276
-1275
-1275
-1275
-1274
-1274
-1274
-1274
-1274
-1273
-1274
-1273
-1272
-1272
-1272
-1272
-1272
-1273
-1273
-1273
-1274
-1274
-1273
-1273
-1272
-1272
-1273
-1274
-1274
-1274
-1274
-1274
-1275
-1274
-1274
-1275
-1275
-1276
-1276
-1277
-1277
-1277
-1277
-1277
-1277
-1278
-1279
-1279
-1280
-1280
-1280
-1280
-1280
-1281
-1281
-1282
-1281
-1282
-1283
-1284
-1284
-1283
-1283
-1283
-1283
-1283
-1284
-1285
-1285
-1286
-1286
-1285
-1285
-1285
-1285
-1285
-1286
-1287
-1287
-1287
-1287
-1287
-1287
-1287
-1287
-1287
-1288
-1288
-1289
-1289
-1289
-1289
-1289
-1288
-1288
-1289
-1289
-1290
-1290
-1290
-1290
-1290
-1289
-1289
-1289
-1289
-1290
-1291
-1291
-1291
-1291
-1291
-1290
-1290
-1290
-1291
-1291
-1291
-1292
-1292
-1291
-1291
-1291
-1291
-1291
-1291
-1292
-1292
-1292
-1292
-1292
-1291
-1291
-1291
-1291
-1291
-1292
-1293
-1293
-1293
-1293
-1292
-1291
-1291
-1291
-1292
-1293
-1293
-1293
-1293
-1293
-1293
-1292
-1292
-1292
-1292
-1293
-1293
-1294
-1294
-1294
-1293
-1293
-1293
-1293
-1293
-1294
-1294
-1294
-1294
-1294
-1294
-1292
-1291
-1291
-1291
-1291
-1290
-1290
-1290
-1290
-1288
-1286
-1283
-1282
-1282
-1282
-1283
-1284
-1283
-1283
-1282
-1281
-1278
-1275
-1272
-1270
-1269
-1269
-1272
-1274
-1275
-1277
-1279
-1281
-1283
-1285
-1286
-1287
-1288
-1288
-1289
-1291
-1293
-1294
-1296
-1298
-1299
-1299
-1300
-1300
-1300
-1300
-1300
-1300
-1301
-1302
-1302
-1303
-1303
-1303
-1302
-1302
-1302
-1302
-1302
-1303
-1304
-1304
-1305
-1304
-1305
-1307
-1310
-1315
-1322
-1331
-1339
-1345
-1349
-1349
-1341
-1327
-1307
-1282
-1243
-1192
-1131
-1068
-1004
-945
-886
-829
-780
-739
-704
-678
-662
-671
-706
-754
-813
-892
-981
-1071
-1159
-1239
-1296
-1316
-1322
-1326
-1323
-1318
-1311
-1304
-1299
-1291
-1286
-1282
-1278
-1276
-1274
-1273
-1274
-1275
-1276
-1276
-1276
-1276
-1276
-1276
-1275
-1274
-1273
-1273
-1273
-1272
-1272
-1273
-1272
-1271
-1270
-1269
-1268
-1267
-1267
-1267
-1266
-1266
-1265
-1264
-1262
-1261
-1260
-1259
-1258
-1258
-1258
-1257
-1254
-1253
-1252
-1251
-1250
-1249
-1248
-1247
-1245
-1244
-1242
-1241
-1239
-1237
-1236
-1234
-1233
-1231
-1230
-1228
-1227
-1224
-1221
-1219
-1216
-1215
-1213
-1210
-1209
-1206
-1203
-1200
-1196
-1193
-1190
-1187
-1185
-1182
-1179
-1176
-1173
-1169
-1166
-1162
-1160
-1157
-1155
-1153
-1151
-1148
-1146
-1144
-1141
-1139
-1137
-1136
-1135
-1134
-1133
-1132
-1131
-1131
-1131
-1131
-1132
-1133
-1135
-1139
-1142
-1146
-1150
-1154
-1159
-1164
-1169
-1176
-1182
-1188
-1194
-1200
-1206
-1211
-1216
-1221
-1227
-1232
-1238
-1242
-1246
-1250
-1254
-1257
-1259
-1262
-1265
-1268
-1270
-1272
-1274
-1276
-1277
-1278
-1278
-1279
-1280
-1282
-1282
-1284
-1284
-1285
-1285
-1285
-1285
-1285
-1285
-1286
-1286
-1286
-1287
-1287
-1287
-1286
-1286
-1286
-1285
-1286
-1286
-1286
-1287
-1286
-1285
-1285
-1284
-1284
-1284
-1285
-1285
-1285
-1285
-1285
-1284
-1283
-1283
-1283
-1283
-1283
-1283
-1284
-1283
-1283
-1283
-1282
-1282
-1282
-1282
-1283
-1283
-1283
-1283
-1283
-1283
-1283
-1283
-1283
-1283
-1284
-1284
-1285
-1285
-1285
-1286
-1285
-1285
-1286
-1286
-1286
-1287
-1288
-1289
-1289
-1289
-1289
-1289
-1289
-1289
-1290
-1291
-1291
-1292
-1292
-1292
-1292
-1292
-1292
-1292
-1293
-1293
-1294
-1294
-1294
-1294
-1294
-1294
-1294
-1294
-1295
-1296
-1296
-1296
-1296
-1295
-1296
-1296
-1294
-1295
-1296
-1297
-1297
-1298
-1297
-1297
-1297
-1296
-1297
-1297
-1298
-1299
-1299
-1299
-1299
-1299
-1298
-1298
-1297
-1298
-1299
-1299
-1300
-1300
-1299
-1299
-1299
-1299
-1299
-1299
-1300
-1300
-1300
-1300
-1300
-1300
-1299
-1299
-1299
-1299
-1300
-1301
-1301
-1301
-1301
-1301
-1300
-1301
-1300
-1300
-1300
-1301
-1301
-1301
-1301
-1300
-1300
-1300
-1300
-1300
-1301
-1301
-1301
-1301
-1301
-1301
-1301
-1301
-1301
-1301
-1302
-1302
-1302
-1302
-1302
-1301
-1301
-1301
-1301
-1301
-1302
-1303
-1303
-1303
-1302
-1302
-1302
-1301
-1302
-1302
-1303
-1303
-1303
-1302
-1303
-1302
-1302
-1301
-1301
-1301
-1301
-1301
-1301
-1300
-1299
-1298
-1298
-1296
-1296
-1296
-1295
-1293
-1291
-1291
-1291
-1291
-1291
-1290
-1290
-1290
-1290
-1287
-1284
-1280
-1279
-1277
-1277
-1280
-1282
-1285
-1287
-1290
-1291
-1293
-1294
-1294
-1294
-1294
-1296
-1298
-1300
-1302
-1304
-1305
-1306
-1307
-1307
-1307
-1308
-1308
-1309
-1309
-1309
-1310
-1309
-1310
-1310
-1309
-1309
-1310
-1310
-1310
-1311
-1311
-1310
-1310
-1310
-1311
-1311
-1313
-1315
-1319
-1325
-1332
-1341
-1346
-1352
-1355
-1353
-1344
-1327
-1306
-1276
-1232
-1175
-1111
-1046
-984
-925
-868
-813
-767
-727
-696
-673
-667
-690
-736
-790
-861
-947
-1037
-1126
-1208
-1278
-1317
-1327
-1332
-1331
-1326
-1321
-1314
-1309
-1301
-1294
-1288
-1285
-1282
-1280
-1280
-1280
-1281
-1282
-1282
-1282
-1283
-1281
-1281
-1281
-1281
-1281
-1281
-1281
-1280
-1279
-1278
-1277
-1277
-1276
-1276
-1276
-1276
-1275
-1274
-1274
-1272
-1270
-1269
-1269
-1269
-1268
-1267
-1267
-1266
-1264
-1262
-1261
-1260
-1259
-1259
-1257
-1256
-1255
-1253
-1252
-1250
-1248
-1247
-1247
-1245
-1243
-1242
-1240
-1238
-1237
-1234
-1232
-1230
-1228
-1227
-1225
-1224
-1221
-1218
-1215
-1212
-1209
-1207
-1204
-1201
-1199
-1196
-1193
-1190
-1186
-1183
-1180
-1176
-1173
-1170
-1168
-1165
-1162
-1159
-1156
-1153
-1151
-1148
-1147
-1145
-1143
-1142
-1140
-1139
-1137
-1135
-1134
-1133
-1133
-1134
-1135
-1136
-1138
-1139
-1142
-1144
-1148
-1152
-1157
-1163
-1168
-1174
-1180
-1185
-1191
-1197
-1203
-1209
-1215
-1221
-1227
-1232
-1237
-1242
-1246
-1250
-1254
-1258
-1261
-1265
-1268
-1270
-1272
-1274
-1276
-1278
-1279
-1281
-1282
-1283
-1285
-1286
-1287
-1287
-1288
-1287
-1287
-1288
-1289
-1290
-1291
-1290
-1290
-1290
-1290
-1290
-1290
-1290
-1290
-1290
-1291
-1291
-1290
-1290
-1289
-1289
-1289
-1289
-1289
-1290
-1289
-1290
-1289
-1289
-1288
-1288
-1287
-1287
-1288
-1288
-1289
-1288
-1288
-1288
-1287
-1287
-1287
-1286
-1286
-1287
-1287
-1288
-1288
-1288
-1287
-1287
-1287
-1287
-1288
-1289
-1289
-1290
-1289
-1289
-1289
-1289
-1289
-1289
-1290
-1291
-1291
-1291
-1292
-1292
-1291
-1291
-1291
-1292
-1293
-1294
-1294
-1294
-1294
-1294
-1294
-1295
-1295
-1295
-1296
-1296
-1297
-1297
-1297
-1297
-1297
-1296
-1297
-1297
-1298
-1299
-1299
-1299
-1299
-1299
-1299
-1299
-1298
-1298
-1299
-1300
-1300
-1299
-1300
-1300
-1300
-1299
-1299
-1300
-1301
-1301
-1301
-1301
-1301
-1301
-1301
-1300
-1300
-1300
-1301
-1301
-1301
-1302
-1302
-1301
-1301
-1301
-1301
-1300
-1301
-1302
-1302
-1302
-1302
-1302
-1301
-1301
-1301
-1302
-1302
-1302
-1302
-1302
-1302
-1302
-1302
-1301
-1301
-1302
-1302
-1303
-1303
-1303
-1303
-1302
-1302
-1303
-1302
-1302
-1303
-1303
-1303
-1303
-1303
-1303
-1303
-1303
-1303
-1303
-1304
-1304
-1304
-1304
-1304
-1304
-1303
-1304
-1303
-1304
-1304
-1304
-1305
-1305
-1304
-1304
-1303
-1303
-1303
-1304
-1305
-1304
-1305
-1305
-1305
-1304
-1303
-1304
-1304
-1304
-1305
-1304
-1304
-1303
-1303
-1302
-1300
-1300
-1300
-1300
-1300
-1299
-1298
-1296
-1293
-1293
-1292
-1292
-1293
-1291
-1292
-1292
-1292
-1289
-1286
-1282
-1279
-1278
-1278
-1280
-1282
-1285
-1288
-1290
-1290
-1292
-1293
-1293
-1294
-1295
-1296
-1298
-1300
-1303
-1304
-1304
-1305
-1305
-1306
-1307
-1308
-1308
-1309
-1309
-1309
-1309
-1308
-1308
-1309
-1310
-1310
-1310
-1310
-1310
-1310
-1309
-1308
-1309
-1309
-1310
-1310
-1311
-1314
-1317
-1322
-1328
-1335
-1342
-1349
-1354
-1354
-1347
-1333
-1313
-1287
-1248
-1195
-1134
-1070
-1007
-948
-891
-835
-787
-747
-711
-685
-669
-679
-717
-769
-831
-912
-999
-1089
-1174
-1250
-1304
-1323
-1329
-1334
-1332
-1326
-1318
-1312
-1305
-1296
-1289
-1285
-1282
-1280
-1279
-1278
-1279
-1280
-1279
-1279
-1279
-1279
-1279
-1279
-1279
-1278
-1278
-1277
-1277
-1276
-1275
-1274
-1275
-1275
-1274
-1273
-1273
-1272
-1270
-1269
-1268
-1268
-1267
-1267
-1266
-1265
-1264
-1263
-1261
-1260
-1259
-1258
-1257
-1256
-1255
-1254
-1253
-1252
-1249
-1248
-1247
-1246
-1245
-1243
-1242
-1241
-1239
-1237
-1234
-1232
-1230
-1229
-1228
-1226
-1224
-1222
-1220
-1218
-1214
-1211
-1209
-1207
-1204
-1202
-1199
-1196
-1194
-1190
-1186
-1183
-1180
-1177
-1174
-1171
-1168
-1165
-1162
-1159
-1156
-1153
-1150
-1148
-1147
-1145
-1143
-1142
-1139
-1137
-1135
-1134
-1132
-1131
-1131
-1131
-1131
-1131
-1132
-1133
-1134
-1136
-1139
-1143
-1147
-1151
-1156
-1161
-1166
-1171
-1176
-1181
-1187
-1194
-1200
-1207
-1213
-1218
-1224
-1228
-1232
-1236
-1240
-1245
-1249
-1253
-1256
-1259
-1261
-1264
-1265
-1267
-1268
-1271
-1273
-1274
-1276
-1276
-1277
-1277
-1278
-1279
-1279
-1279
-1280
-1281
-1281
-1281
-1280
-1281
-1281
-1281
-1282
-1282
-1282
-1282
-1282
-1281
-1281
-1281
-1280
-1280
-1281
-1281
-1281
-1281
-1282
-1282
-1280
-1279
-1279
-1278
-1279
-1279
-1279
-1279
-1279
-1279
-1279
-1278
-1278
-1277
-1278
-1278
-1278
-1279
-1279
-1279
-1279
-1278
-1278
-1277
-1277
-1278
-1278
-1278
-1279
-1279
-1279
-1279
-1279
-1279
-1279
-1280
-1281
-1281
-1282
-1282
-1282
-1282
-1281
-1281
-1282
-1283
-1283
-1284
-1284
-1285
-1285
-1284
-1284
-1284
-1284
-1285
-1285
-1286
-1286
-1286
-1286
-1286
-1286
-1286
-1286
-1287
-1288
-1288
-1288
-1288
-1287
-1288
-1287
-1288
-1289
-1289
-1290
-1290
-1290
-1289
-1290
-1289
-1288
-1289
-1290
-1290
-1290
-1290
-1290
-1290
-1290
-1290
-1290
-1290
-1290
-1290
-1291
-1291
-1291
-1291
-1291
-1291
-1290
-1290
-1291
-1291
-1292
-1292
-1292
-1293
-1292
-1291
-1291
-1291
-1292
-1292
-1293
-1293
-1294
-1294
-1293
-1293
-1292
-1292
-1293
-1293
-1293
-1293
-1293
-1293
-1293
-1292
-1292
-1292
-1293
-1293
-1294
-1294
-1294
-1294
-1294
-1293
-1293
-1293
-1293
-1293
-1293
-1293
-1294
-1293
-1293
-1293
-1293
-1293
-1294
-1295
-1294
-1294
-1294
-1294
-1293
-1293
-1293
-1293
-1294
-1294
-1294
-1294
-1293
-1293
-1292
-1292
-1290
-1289
-1290
-1290
-1290
-1289
-1286
-1284
-1284
-1283
-1283
-1284
-1283
-1284
-1284
-1282
-1279
-1275
-1271
-1270
-1269
-1270
-1272
-1275
-1278
-1279
-1281
-1283
-1283
-1284
-1285
-1287
-1288
-1288
-1291
-1292
-1294
-1296
-1297
-1298
-1297
-1298
-1299
-1300
-1300
-1302
-1302
-1301
-1302
-1302
-1301
-1301
-1302
-1302
-1302
-1303
-1303
-1302
-1302
-1302
-1301
-1302
-1303
-1302
-1304
-1306
-1309
-1314
-1321
-1329
-1336
-1341
-1345
-1345
-1336
-1320
-1299
-1272
-1231
-1178
-1118
-1056
-995
-940
-884
-831
-788
-748
-712
-688
-673
-684
-722
-774
-836
-917
-1001
-1090
-1173
-1248
-1297
-1314
-1320
-1326
-1328
-1323
-1316
-1309
-1303
-1295
-1286
-1281
-1277
-1275
-1274
-1274
-1275
-1275
-1274
-1275
-1275
-1274
-1275
-1276
-1274
-1274
-1275
-1274
-1273
-1272
-1272
-1271
-1272
-1272
-1272
-1271
-1270
-1268
-1267
-1266
-1265
-1264
-1264
-1264
-1263
-1263
-1262
-1261
-1260
-1258
-1258
-1257
-1256
-1255
-1255
-1254
-1252
-1252
-1249
-1247
-1247
-1246
-1244
-1243
-1243
-1242
-1239
-1238
-1235
-1233
-1232
-1231
-1228
-1227
-1226
-1224
-1221
-1219
-1216
-1214
-1211
-1209
-1206
-1203
-1201
-1198
-1195
-1192
-1188
-1184
-1181
-1179
-1176
-1173
-1171
-1167
-1164
-1162
-1159
-1156
-1154
-1152
-1150
-1149
-1147
-1145
-1143
-1142
-1140
-1139
-1137
-1137
-1137
-1137
-1137
-1138
-1138
-1139
-1140
-1143
-1146
-1150
-1154
-1159
-1164
-1167
-1174
-1179
-1184
-1190
-1196
-1202
-1208
-1214
-1221
-1227
-1231
-1235
-1239
-1244
-1248
-1252
-1256
-1259
-1262
-1265
-1267
-1270
-1272
-1273
-1275
-1277
-1279
-1279
-1281
-1282
-1282
-1282
-1283
-1283
-1284
-1284
-1286
-1287
-1288
-1288
-1287
-1287
-1286
-1286
-1286
-1287
-1290
-1289
-1288
-1288
-1288
-1287
-1286
-1285
-1286
-1286
-1287
-1287
-1287
-1287
-1287
-1285
-1285
-1285
-1285
-1285
-1285
-1286
-1286
-1286
-1285
-1284
-1284
-1283
-1283
-1284
-1284
-1284
-1284
-1284
-1284
-1284
-1284
-1285
-1284
-1285
-1285
-1285
-1284
-1285
-1285
-1286
-1285
-1286
-1286
-1287
-1287
-1287
-1288
-1288
-1288
-1287
-1287
-1288
-1288
-1289
-1290
-1290
-1291
-1290
-1290
-1290
-1290
-1290
-1291
-1291
-1293
-1293
-1293
-1294
-1294
-1293
-1293
-1292
-1293
-1295
-1295
-1296
-1296
-1296
-1296
-1295
-1294
-1295
-1295
-1297
-1297
-1298
-1297
-1297
-1297
-1297
-1296
-1296
-1297
-1298
-1297
-1298
-1298
-1298
-1297
-1297
-1296
-1296
-1297
-1297
-1298
-1298
-1299
-1299
-1299
-1298
-1298
-1298
-1298
-1298
-1299
-1299
-1299
-1299
-1298
-1299
-1298
-1298
-1299
-1299
-1300
-1300
-1300
-1299
-1299
-1299
-1299
-1299
-1300
-1300
-1299
-1300
-1299
-1299
-1299
-1299
-1299
-1300
-1300
-1300
-1301
-1301
-1301
-1300
-1300
-1300
-1299
-1300
-1300
-1300
-1301
-1301
-1300
-1301
-1301
-1301
-1300
-1299
-1301
-1301
-1301
-1302
-1302
-1302
-1301
-1300
-1300
-1300
-1301
-1301
-1301
-1301
-1302
-1302
-1302
-1301
-1300
-1299
-1300
-1299
-1298
-1299
-1298
-1297
-1296
-1295
-1294
-1292
-1291
-1290
-1290
-1290
-1290
-1290
-1289
-1289
-1288
-1287
-1284
-1280
-1278
-1277
-1277
-1278
-1280
-1281
-1283
-1285
-1288
-1290
-1291
-1293
-1294
-1294
-1294
-1295
-1297
-1300
-1301
-1302
-1304
-1306
-1305
-1305
-1306
-1306
-1306
-1307
-1307
-1308
-1309
-1309
-1308
-1308
-1308
-1308
-1308
-1309
-1309
-1309
-1310
-1310
-1311
-1311
-1310
-1309
-1311
-1314
-1319
-1325
-1333
-1341
-1347
-1352
-1355
-1354
-1343
-1325
-1304
-1275
-1231
-1174
-1109
-1044
-981
-922
-863
-809
-764
-724
-691
-669
-663
-686
-732
-787
-858
-943
-1034
-1122
-1203
-1274
-1313
-1325
-1329
-1331
-1326
-1320
-1314
-1309
-1301
-1295
-1290
-1286
-1281
-1280
-1279
-1280
-1281
-1282
-1283
-1283
-1283
-1282
-1281
-1281
-1281
-1280
-1280
-1280
-1281
-1280
-1278
-1277
-1278
-1277
-1277
-1276
-1276
-1275
-1274
-1273
-1272
-1272
-1271
-1270
-1268
-1268
-1267
-1266
-1266
-1265
-1263
-1261
-1260
-1260
-1258
-1256
-1256
-1255
-1255
-1253
-1250
-1249
-1248
-1246
-1245
-1243
-1242
-1241
-1239
-1235
-1234
-1233
-1231
-1228
-1226
-1225
-1223
-1221
-1219
-1216
-1213
-1210
-1207
-1204
-1201
-1198
-1196
-1193
-1190
-1187
-1182
-1179
-1177
-1173
-1169
-1168
-1165
-1162
-1160
-1157
-1154
-1151
-1148
-1147
-1145
-1143
-1142
-1142
-1139
-1138
-1137
-1136
-1134
-1134
-1135
-1135
-1136
-1138
-1140
-1143
-1145
-1149
-1153
-1157
-1163
-1169
-1174
-1180
-1187
-1192
-1198
-1204
-1209
-1215
-1220
-1226
-1232
-1236
-1241
-1246
-1250
-1254
-1257
-1260
-1264
-1267
-1269
-1272
-1276
-1277
-1278
-1279
-1279
-1281
-1283
-1284
-1285
-1286
-1287
-1288
-1288
-1288
-1288
-1288
-1289
-1289
-1290
-1291
-1290
-1290
-1290
-1289
-1289
-1290
-1290
-1289
-1290
-1291
-1290
-1290
-1289
-1288
-1287
-1287
-1287
-1287
-1287
-1287
-1288
-1288
-1287
-1285
-1285
-1285
-1285
-1286
-1286
-1286
-1286
-1286
-1286
-1285
-1285
-1284
-1285
-1285
-1286
-1285
-1286
-1285
-1285
-1285
-1285
-1285
-1286
-1286
-1286
-1287
-1287
-1287
-1287
-1287
-1287
-1287
-1288
-1288
-1289
-1290
-1289
-1289
-1289
-1289
-1290
-1289
-1289
-1291
-1291
-1292
-1292
-1292
-1292
-1292
-1292
-1292
-1292
-1293
-1293
-1294
-1295
-1294
-1294
-1294
-1293
-1295
-1294
-1296
-1296
-1296
-1296
-1296
-1296
-1295
-1294
-1295
-1296
-1295
-1297
-1297
-1297
-1297
-1297
-1297
-1296
-1296
-1296
-1297
-1297
-1297
-1298
-1298
-1297
-1296
-1296
-1296
-1296
-1297
-1297
-1298
-1298
-1297
-1296
-1295
-1295
-1296
-1296
-1297
-1298
-1298
-1298
-1298
-1296
-1297
-1296
-1296
-1297
-1297
-1297
-1297
-1296
-1297
-1297
-1297
-1297
-1297
-1297
-1297
-1298
-1298
-1298
-1297
-1297
-1296
-1296
-1296
-1297
-1297
-1297
-1297
-1298
-1298
-1298
-1297
-1296
-1297
-1297
-1298
-1298
-1298
-1297
-1297
-1297
-1297
-1297
-1297
-1297
-1298
-1298
-1298
-1298
-1298
-1297
-1296
-1297
-1297
-1297
-1298
-1297
-1296
-1296
-1296
-1296
-1294
-1293
-1294
-1293
-1293
-1293
-1291
-1289
-1287
-1286
-1285
-1286
-1285
-1284
-1285
-1285
-1285
-1283
-1279
-1275
-1273
-1270
-1269
-1272
-1276
-1278
-1280
-1282
-1283
-1284
-1285
-1286
-1287
-1289
-1289
-1291
-1292
-1295
-1296
-1296
-1298
-1298
-1299
-1300
-1302
-1302
-1303
-1303
-1303
-1301
-1301
-1301
-1301
-1302
-1303
-1303
-1304
-1304
-1303
-1303
-1303
-1303
-1304
-1303
-1304
-1304
-1306
-1308
-1310
-1316
-1323
-1331
-1338
-1344
-1347
-1345
-1335
-1317
-1296
-1265
-1221
-1165
-1102
-1038
-977
-920
-863
-809
-765
-725
-691
-667
-659
-683
-729
-785
-855
-939
-1026
-1115
-1196
-1266
-1306
-1318
-1324
-1329
-1326
-1319
-1312
-1306
-1297
-1290
-1285
-1280
-1276
-1275
-1275
-1275
-1275
-1275
-1275
-1274
-1274
-1275
-1275
-1275
-1274
-1275
-1274
-1274
-1273
-1273
-1272
-1271
-1271
-1270
-1271
-1270
-1269
-1268
-1268
-1266
-1265
-1265
-1265
-1265
-1263
-1262
-1260
-1259
-1258
-1257
-1256
-1256
-1255
-1253
-1253
-1252
-1250
-1248
-1247
-1246
-1245
-1244
-1242
-1241
-1240
-1238
-1236
-1235
-1233
-1232
-1230
-1228
-1227
-1225
-1223
-1220
-1217
-1214
-1211
-1209
-1208
-1206
-1203
-1199
-1197
-1194
-1191
-1187
-1184
-1182
-1179
-1176
-1172
-1170
-1166
-1163
-1159
-1156
-1153
-1152
-1150
-1148
-1146
-1144
-1142
-1141
-1139
-1137
-1135
-1133
-1133
-1132
-1131
-1131
-1132
-1132
-1132
-1133
-1135
-1137
-1142
-1145
-1149
-1153
-1158
-1163
-1168
-1173
-1179
-1186
-1192
-1197
-1202
-1208
-1214
-1219
-1223
-1227
-1231
-1235
-1241
-1245
-1248
-1251
-1254
-1257
-1260
-1262
-1264
-1265
-1268
-1270
-1271
-1273
-1274
-1274
-1274
-1275
-1275
-1276
-1277
-1278
-1278
-1279
-1280
-1280
-1280
-1279
-1279
-1279
-1279
-1279
-1280
-1280
-1280
-1279
-1279
-1279
-1278
-1278
-1278
-1278
-1278
-1278
-1278
-1277
-1276
-1276
-1275
-1276
-1276
-1276
-1276
-1276
-1276
-1276
-1275
-1275
-1274
-1274
-1275
-1275
-1276
-1275
-1275
-1274
-1273
-1273
-1273
-1273
-1274
-1275
-1276
-1275
-1276
-1277
-1276
-1275
-1275
-1276
-1277
-1277
-1277
-1277
-1278
-1278
-1278
-1278
-1278
-1279
-1279
-1280
-1280
-1280
-1280
-1280
-1279
-1280
-1280
-1281
-1281
-1282
-1283
-1284
-1283
-1283
-1283
-1284
-1283
-1284
-1284
-1285
-1286
-1286
-1286
-1286
-1285
-1285
-1285
-1286
-1288
-1288
-1288
-1289
-1288
-1288
-1288
-1287
-1286
-1287
-1288
-1289
-1290
-1290
-1289
-1289
-1289
-1289
-1289
-1290
-1290
-1290
-1290
-1291
-1290
-1290
-1290
-1290
-1290
-1289
-1290
-1291
-1291
-1292
-1292
-1291
-1290
-1290
-1290
-1290
-1290
-1290
-1291
-1292
-1292
-1291
-1291
-1291
-1291
-1291
-1292
-1292
-1293
-1293
-1292
-1291
-1291
-1291
-1291
-1292
-1292
-1293
-1294
-1294
-1293
-1293
-1292
-1291
-1291
-1292
-1292
-1293
-1292
-1293
-1293
-1293
-1292
-1292
-1292
-1291
-1291
-1291
-1291
-1291
-1290
-1288
-1287
-1287
-1288
-1285
-1284
-1284
-1283
-1282
-1282
-1282
-1282
-1282
-1281
-1281
-1279
-1276
-1271
-1269
-1268
-1268
-1270
-1272
-1274
-1276
-1279
-1281
-1283
-1284
-1284
-1285
-1286
-1287
-1288
-1289
-1294
-1295
-1295
-1296
-1298
-1298
-1297
-1298
-1299
-1299
-1299
-1300
-1301
-1301
-1301
-1301
-1301
-1301
-1301
-1301
-1301
-1301
-1301
-1301
-1302
-1302
-1301
-1301
-1301
-1303
-1306
-1310
-1316
-1323
-1330
-1337
-1342
-1344
-1343
-1334
-1317
-1297
-1268
-1224
-1170
-1108
-1044
-983
-927
-872
-820
-778
-740
-708
-684
-673
-690
-729
-781
-847
-929
-1013
-1103
-1186
-1259
-1301
-1312
-1319
-1325
-1325
-1321
-1315
-1310
-1304
-1295
-1287
-1282
-1278
-1275
-1275
-1275
-1275
-1275
-1276
-1276
-1275
-1274
-1274
-1275
-1275
-1275
-1275
-1274
-1273
-1273
-1272
-1271
-1271
-1271
-1269
-1269
-1268
-1269
-1268
-1267
-1265
-1264
-1264
-1263
-1262
-1262
-1261
-1261
-1259
-1258
-1256
-1254
-1254
-1253
-1252
-1252
-1251
-1249
-1248
-1248
-1246
-1243
-1242
-1242
-1240
-1239
-1238
-1236
-1233
-1231
-1229
-1226
-1225
-1224
-1222
-1221
-1218
-1216
-1213
-1211
-1208
-1204
-1202
-1200
-1197
-1195
-1192
-1189
-1185
-1182
-1179
-1175
-1172
-1169
-1166
-1164
-1161
-1159
-1156
-1154
-1151
-1148
-1146
-1144
-1142
-1141
-1139
-1138
-1137
-1137
-1134
-1133
-1133
-1133
-1134
-1134
-1136
-1137
-1140
-1142
-1145
-1148
-1153
-1158
-1163
-1169
-1174
-1180
-1185
-1191
-1196
-1201
-1208
-1213
-1220
-1226
-1231
-1236
-1240
-1243
-1247
-1251
-1255
-1258
-1260
-1264
-1266
-1269
-1270
-1271
-1272
-1274
-1275
-1276
-1278
-1280
-1281
-1281
-1281
-1282
-1282
-1282
-1283
-1283
-1285
-1285
-1285
-1285
-1286
-1284
-1284
-1285
-1285
-1285
-1285
-1284
-1285
-1284
-1284
-1285
-1283
-1282
-1283
-1283
-1284
-1284
-1283
-1282
-1282
-1282
-1282
-1282
-1281
-1281
-1282
-1281
-1281
-1282
-1281
-1280
-1280
-1280
-1280
-1280
-1281
-1282
-1282
-1281
-1281
-1280
-1281
-1281
-1280
-1281
-1283
-1282
-1282
-1282
-1282
-1282
-1282
-1282
-1283
-1284
-1284
-1285
-1285
-1284
-1284
-1285
-1286
-1286
-1286
-1286
-1287
-1288
-1287
-1288
-1289
-1289
-1289
-1289
-1289
-1289
-1290
-1290
-1290
-1292
-1291
-1291
-1292
-1291
-1291
-1292
-1293
-1294
-1293
-1293
-1294
-1293
-1293
-1293
-1294
-1295
-1295
-1296
-1295
-1294
-1295
-1294
-1294
-1294
-1295
-1295
-1296
-1296
-1297
-1297
-1296
-1295
-1295
-1294
-1295
-1296
-1296
-1297
-1297
-1297
-1297
-1295
-1295
-1295
-1296
-1297
-1297
-1298
-1297
-1296
-1297
-1296
-1296
-1296
-1297
-1297
-1297
-1297
-1298
-1297
-1297
-1296
-1297
-1297
-1297
-1298
-1298
-1298
-1298
-1297
-1297
-1297
-1297
-1297
-1298
-1298
-1298
-1299
-1299
-1298
-1298
-1298
-1298
-1298
-1299
-1298
-1298
-1299
-1300
-1299
-1298
-1298
-1299
-1297
-1297
-1299
-1299
-1299
-1299
-1298
-1299
-1299
-1299
-1299
-1299
-1299
-1299
-1300
-1300
-1300
-1298
-1298
-1299
-1298
-1298
-1298
-1298
-1298
-1297
-1297
-1295
-1294
-1294
-1294
-1293
-1293
-1292
-1289
-1289
-1288
-1287
-1288
-1287
-1287
-1288
-1287
-1285
-1283
-1279
-1277
-1275
-1273
-1276
-1279
-1281
-1284
-1285
-1286
-1289
-1290
-1290
-1291
-1290
-1292
-1292
-1295
-1298
-1299
-1300
-1302
-1302
-1303
-1303
-1303
-1304
-1305
-1304
-1305
-1306
-1306
-1306
-1306
-1306
-1306
-1306
-1307
-1307
-1306
-1306
-1306
-1306
-1306
-1306
-1307
-1308
-1309
-1311
-1315
-1319
-1326
-1334
-1341
-1346
-1351
-1353
-1345
-1329
-1309
-1284
-1246
-1193
-1130
-1065
-1002
-943
-885
-827
-777
-736
-700
-673
-658
-670
-710
-761
-824
-904
-993
-1081
-1165
-1240
-1297
-1319
-1325
-1328
-1325
-1320
-1313
-1308
-1301
-1293
-1286
-1281
-1280
-1278
-1277
-1278
-1278
-1279
-1278
-1278
-1278
-1278
-1278
-1279
-1279
-1279
-1278
-1277
-1277
-1275
-1275
-1275
-1274
-1274
-1273
-1272
-1272
-1273
-1270
-1269
-1268
-1268
-1267
-1267
-1266
-1265
-1264
-1263
-1262
-1261
-1259
-1258
-1257
-1256
-1257
-1256
-1254
-1252
-1251
-1249
-1248
-1247
-1245
-1244
-1243
-1242
-1240
-1238
-1236
-1234
-1232
-1230
-1229
-1227
-1225
-1223
-1220
-1218
-1216
-1212
-1210
-1207
-1204
-1202
-1200
-1197
-1195
-1192
-1186
-1183
-1179
-1176
-1173
-1171
-1168
-1165
-1163
-1159
-1156
-1153
-1150
-1147
-1145
-1144
-1142
-1140
-1139
-1136
-1134
-1132
-1131
-1130
-1129
-1128
-1129
-1130
-1132
-1132
-1133
-1136
-1138
-1141
-1146
-1150
-1155
-1161
-1167
-1172
-1177
-1183
-1189
-1195
-1201
-1207
-1214
-1220
-1226
-1230
-1234
-1238
-1244
-1248
-1252
-1256
-1259
-1262
-1265
-1267
-1269
-1271
-1273
-1275
-1277
-1279
-1280
-1281
-1283
-1282
-1282
-1283
-1284
-1285
-1285
-1285
-1287
-1288
-1287
-1287
-1286
-1286
-1286
-1287
-1287
-1288
-1288
-1287
-1288
-1288
-1287
-1286
-1286
-1286
-1286
-1287
-1287
-1287
-1287
-1286
-1285
-1285
-1285
-1285
-1285
-1285
-1286
-1286
-1285
-1285
-1284
-1284
-1284
-1284
-1284
-1285
-1285
-1285
-1285
-1285
-1284
-1283
-1283
-1285
-1284
-1285
-1285
-1286
-1286
-1286
-1285
-1285
-1286
-1286
-1286
-1287
-1287
-1287
-1288
-1288
-1287
-1288
-1288
-1288
-1289
-1289
-1291
-1290
-1290
-1290
-1291
-1290
-1290
-1290
-1292
-1292
-1292
-1293
-1293
-1293
-1292
-1292
-1293
-1294
-1295
-1295
-1295
-1295
-1295
-1295
-1295
-1295
-1295
-1295
-1296
-1296
-1297
-1298
-1297
-1297
-1296
-1296
-1296
-1296
-1297
-1297
-1298
-1298
-1298
-1297
-1297
-1297
-1297
-1298
-1298
-1299
-1298
-1299
-1298
-1298
-1297
-1297
-1297
-1298
-1297
-1298
-1299
-1298
-1299
-1298
-1298
-1298
-1298
-1298
-1298
-1299
-1299
-1299
-1299
-1298
-1298
-1298
-1298
-1299
-1298
-1298
-1299
-1299
-1299
-1299
-1299
-1298
-1298
-1299
-1299
-1299
-1299
-1299
-1299
-1298
-1298
-1298
-1299
-1298
-1299
-1299
-1299
-1298
-1299
-1298
-1298
-1298
-1298
-1299
-1299
-1299
-1299
-1299
-1298
-1298
-1297
-1297
-1297
-1298
-1299
-1299
-1299
-1298
-1298
-1297
-1297
-1297
-1297
-1297
-1298
-1298
-1298
-1297
-1296
-1295
-1294
-1293
-1293
-1292
-1294
-1293
-1291
-1289
-1288
-1286
-1285
-1286
-1286
-1286
-1286
-1287
-1286
-1283
-1278
-1275
-1272
-1271
-1272
-1274
-1277
-1280
-1282
-1284
-1285
-1285
-1287
-1287
-1288
-1289
-1291
-1293
-1295
-1296
-1297
-1298
-1299
-1300
-1300
-1301
-1301
-1302
-1303
-1303
-1303
-1303
-1302
-1302
-1303
-1303
-1304
-1303
-1304
-1304
-1304
-1303
-1303
-1303
-1303
-1304
-1304
-1304
-1306
-1308
-1312
-1317
-1324
-1332
-1339
-1345
-1349
-1347
-1336
-1318
-1295
-1264
-1219
-1162
-1100
-1036
-976
-918
-860
-806
-761
-721
-688
-664
-658
-684
-731
-785
-856
-940
-1028
-1117
-1198
-1269
-1308
-1319
-1325
-1327
-1322
-1316
-1309
-1304
-1295
-1287
-1282
-1278
-1275
-1274
-1274
-1274
-1274
-1273
-1273
-1273
-1274
-1274
-1274
-1274
-1274
-1273
-1272
-1271
-1270
-1270
-1269
-1270
-1269
-1268
-1268
-1267
-1266
-1265
-1263
-1263
-1263
-1262
-1261
-1261
-1260
-1258
-1257
-1257
-1255
-1253
-1253
-1252
-1250
-1250
-1248
-1247
-1245
-1243
-1242
-1241
-1240
-1239
-1238
-1237
-1236
-1234
-1232
-1230
-1229
-1227
-1224
-1223
-1222
-1220
-1218
-1215
-1213
-1210
-1208
-1205
-1203
-1200
-1198
-1196
-1193
-1190
-1186
-1183
-1179
-1176
-1174
-1171
-1168
-1164
-1161
-1158
-1155
-1152
-1148
-1146
-1144
-1143
-1141
-1139
-1137
-1135
-1133
-1130
-1128
-1128
-1127
-1126
-1126
-1126
-1125
-1125
-1125
-1125
-1128
-1131
-1134
-1138
-1142
-1147
-1152
-1157
-1161
-1166
-1171
-1177
-1184
-1190
-1196
-1202
-1207
-1213
-1217
-1221
-1226
-1231
-1235
-1239
-1243
-1246
-1250
-1252
-1255
-1257
-1259
-1261
-1262
-1264
-1266
-1268
-1268
-1269
-1270
-1270
-1271
-1271
-1272
-1273
-1275
-1275
-1275
-1275
-1274
-1274
-1274
-1275
-1274
-1275
-1275
-1275
-1275
-1275
-1274
-1274
-1274
-1274
-1274
-1274
-1275
-1274
-1273
-1273
-1272
-1271
-1271
-1271
-1271
-1271
-1271
-1271
-1272
-1271
-1270
-1269
-1270
-1270
-1270
-1270
-1270
-1271
-1270
-1270
-1269
-1268
-1268
-1269
-1270
-1270
-1270
-1270
-1270
-1271
-1270
-1270
-1270
-1270
-1272
-1272
-1272
-1273
-1272
-1273
-1272
-1271
-1272
-1273
-1273
-1274
-1275
-1275
-1275
-1275
-1274
-1274
-1274
-1275
-1277
-1277
-1277
-1277
-1277
-1277
-1277
-1277
-1277
-1277
-1278
-1278
-1279
-1279
-1279
-1279
-1278
-1279
-1279
-1279
-1279
-1280
-1280
-1281
-1280
-1280
-1279
-1279
-1279
-1280
-1280
-1281
-1281
-1281
-1281
-1281
-1280
-1280
-1280
-1280
-1281
-1281
-1281
-1281
-1281
-1281
-1281
-1280
-1280
-1281
-1282
-1281
-1282
-1282
-1283
-1282
-1280
-1280
-1280
-1281
-1282
-1282
-1282
-1282
-1282
-1281
-1281
-1280
-1281
-1281
-1281
-1282
-1283
-1283
-1283
-1282
-1281
-1281
-1282
-1282
-1282
-1282
-1282
-1283
-1283
-1283
-1282
-1282
-1282
-1283
-1283
-1284
-1283
-1284
-1284
-1282
-1281
-1281
-1281
-1281
-1281
-1280
-1280
-1279
-1279
-1278
-1277
-1276
-1273
-1273
-1273
-1273
-1274
-1274
-1272
-1272
-1272
-1270
-1268
-1264
-1262
-1260
-1259
-1258
-1261
-1263
-1265
-1266
-1268
-1270
-1272
-1273
-1276
-1277
-1277
-1277
-1278
-1280
-1282
-1284
-1286
-1286
-1288
-1288
-1288
-1289
-1289
-1289
-1289
-1289
-1290
-1291
-1290
-1291
-1291
-1292
-1291
-1290
-1292
-1292
-1292
-1292
-1293
-1293
-1293
-1292
-1291
-1292
-1295
-1299
-1304
-1312
-1320
-1326
-1331
-1335
-1332
-1323
-1307
-1286
-1258
-1217
-1163
-1104
-1041
-980
-925
-870
-820
-781
-744
-712
-688
-673
-685
-721
-771
-834
-913
-996
-1084
-1169
-1243
-1288
-1304
-1310
-1318
-1321
-1317
-1311
-1304
-1299
-1291
-1283
-1276
-1271
-1268
-1266
-1265
-1265
-1265
-1265
-1266
-1266
-1266
-1265
-1265
-1265
-1265
-1265
-1264
-1264
-1264
-1263
-1262
-1261
-1261
-1261
-1260
-1260
-1259
-1259
-1258
-1258
-1256
-1255
-1254
-1253
-1253
-1252
-1251
-1250
-1250
-1248
-1247
-1246
-1245
-1243
-1242
-1242
-1240
-1239
-1238
-1236
-1235
-1233
-1231
-1230
-1230
-1229
-1227
-1226
-1224
-1222
-1220
-1217
-1215
-1213
-1211
-1210
-1208
-1206
-1203
-1201
-1198
-1195
-1191
-1189
-1186
-1184
-1181
-1178
-1175
-1172
-1169
-1165
-1162
-1158
-1156
-1154
-1151
-1149
-1147
-1144
-1141
-1140
-1138
-1136
-1135
-1133
-1132
-1130
-1129
-1128
-1127
-1126
-1126
-1126
-1127
-1128
-1130
-1133
-1135
-1138
-1142
-1146
-1150
-1155
-1160
-1165
-1172
-1178
-1184
-1189
-1195
-1199
-1204
-1210
-1216
-1221
-1226
-1231
-1236
-1239
-1242
-1246
-1249
-1251
-1255
-1257
-1259
-1262
-1264
-1265
-1266
-1267
-1268
-1269
-1271
-1272
-1273
-1274
-1274
-1275
-1275
-1275
-1275
-1276
-1276
-1277
-1277
-1278
-1277
-1277
-1277
-1276
-1277
-1277
-1277
-1277
-1277
-1278
-1278
-1277
-1276
-1276
-1276
-1276
-1276
-1275
-1276
-1276
-1276
-1275
-1274
-1274
-1274
-1273
-1274
-1274
-1274
-1274
-1274
-1274
-1273
-1272
-1272
-1272
-1273
-1274
-1273
-1273
-1273
-1274
-1273
-1273
-1273
-1273
-1274
-1274
-1275
-1275
-1276
-1275
-1275
-1275
-1275
-1276
-1276
-1277
-1278
-1279
-1279
-1279
-1279
-1278
-1278
-1279
-1280
-1280
-1281
-1282
-1283
-1282
-1282
-1281
-1282
-1282
-1283
-1284
-1284
-1285
-1285
-1285
-1285
-1285
-1285
-1285
-1286
-1286
-1287
-1287
-1288
-1288
-1288
-1288
-1288
-1288
-1289
-1289
-1290
-1290
-1290
-1290
-1289
-1289
-1289
-1289
-1290
-1291
-1291
-1291
-1291
-1291
-1291
-1290
-1290
-1291
-1292
-1292
-1292
-1292
-1292
-1292
-1292
-1292
-1292
-1291
-1292
-1293
-1293
-1293
-1293
-1294
-1293
-1293
-1292
-1293
-1293
-1294
-1295
-1295
-1295
-1294
-1293
-1293
-1293
-1294
-1294
-1294
-1295
-1295
-1296
-1295
-1294
-1294
-1294
-1295
-1295
-1295
-1295
-1296
-1295
-1295
-1295
-1295
-1295
-1295
-1296
-1296
-1296
-1296
-1296
-1296
-1296
-1295
-1295
-1295
-1295
-1295
-1294
-1294
-1294
-1292
-1291
-1291
-1291
-1289
-1286
-1286
-1285
-1286
-1286
-1285
-1285
-1285
-1284
-1284
-1282
-1278
-1274
-1274
-1273
-1273
-1276
-1278
-1280
-1282
-1284
-1287
-1289
-1290
-1290
-1290
-1290
-1291
-1292
-1295
-1298
-1299
-1301
-1302
-1302
-1302
-1302
-1303
-1304
-1304
-1304
-1305
-1305
-1306
-1306
-1306
-1305
-1305
-1305
-1306
-1306
-1307
-1306
-1307
-1307
-1306
-1307
-1306
-1307
-1310
-1313
-1318
-1325
-1332
-1340
-1346
-1351
-1353
-1348
-1337
-1319
-1298
-1265
-1217
-1158
-1094
-1027
-966
-906
-847
-793
-748
-710
-679
-657
-657
-687
-733
-790
-863
-951
-1041
-1129
-1210
-1280
-1314
-1323
-1327
-1327
-1321
-1316
-1310
-1304
-1297
-1290
-1285
-1281
-1278
-1277
-1278
-1278
-1279
-1280
-1280
-1280
-1279
-1279
-1278
-1278
-1278
-1278
-1279
-1279
-1278
-1276
-1276
-1274
-1274
-1274
-1275
-1274
-1273
-1273
-1272
-1271
-1269
-1267
-1267
-1267
-1267
-1266
-1266
-1265
-1263
-1262
-1260
-1259
-1258
-1257
-1256
-1256
-1255
-1253
-1252
-1250
-1249
-1247
-1246
-1244
-1243
-1242
-1241
-1239
-1237
-1235
-1232
-1230
-1229
-1226
-1224
-1223
-1221
-1219
-1217
-1213
-1210
-1207
-1204
-1202
-1199
-1196
-1193
-1189
-1186
-1183
-1179
-1176
-1172
-1169
-1166
-1164
-1161
-1159
-1156
-1152
-1149
-1147
-1145
-1142
-1141
-1139
-1137
-1136
-1134
-1133
-1132
-1130
-1130
-1129
-1131
-1132
-1133
-1135
-1138
-1141
-1144
-1148
-1152
-1157
-1164
-1169
-1175
-1182
-1187
-1193
-1199
-1204
-1210
-1217
-1223
-1228
-1233
-1238
-1243
-1247
-1250
-1254
-1258
-1261
-1264
-1268
-1270
-1272
-1274
-1276
-1276
-1278
-1280
-1281
-1282
-1284
-1284
-1284
-1286
-1286
-1287
-1286
-1287
-1288
-1289
-1289
-1289
-1289
-1290
-1290
-1289
-1288
-1289
-1289
-1289
-1289
-1289
-1289
-1289
-1289
-1288
-1287
-1287
-1288
-1288
-1288
-1287
-1288
-1287
-1287
-1286
-1285
-1286
-1286
-1286
-1286
-1286
-1285
-1286
-1285
-1285
-1285
-1284
-1285
-1286
-1286
-1286
-1286
-1285
-1285
-1285
-1285
-1285
-1285
-1286
-1287
-1287
-1287
-1286
-1286
-1286
-1285
-1286
-1287
-1287
-1288
-1289
-1289
-1289
-1288
-1288
-1288
-1289
-1289
-1290
-1290
-1290
-1291
-1292
-1292
-1291
-1291
-1292
-1292
-1293
-1293
-1294
-1294
-1294
-1294
-1293
-1293
-1294
-1295
-1296
-1296
-1296
-1296
-1297
-1296
-1295
-1296
-1296
-1297
-1298
-1298
-1299
-1299
-1298
-1298
-1297
-1297
-1298
-1299
-1299
-1298
-1299
-1299
-1300
-1299
-1298
-1298
-1299
-1299
-1300
-1300
-1300
-1300
-1300
-1299
-1299
-1299
-1299
-1300
-1300
-1300
-1300
-1301
-1301
-1300
-1299
-1300
-1300
-1300
-1301
-1301
-1302
-1301
-1301
-1301
-1300
-1299
-1300
-1301
-1301
-1301
-1301
-1301
-1301
-1301
-1302
-1301
-1302
-1302
-1302
-1302
-1302
-1302
-1302
-1301
-1301
-1301
-1302
-1301
-1302
-1303
-1303
-1303
-1302
-1301
-1301
-1301
-1302
-1302
-1303
-1303
-1303
-1302
-1303
-1302
-1301
-1302
-1302
-1302
-1303
-1303
-1303
-1303
-1303
-1302
-1302
-1302
-1302
-1300
-1301
-1301
-1300
-1299
-1299
-1298
-1298
-1297
-1298
-1296
-1293
-1292
-1292
-1291
-1292
-1291
-1290
-1291
-1291
-1291
-1288
-1285
-1282
-1280
-1279
-1279
-1281
-1284
-1287
-1289
-1292
-1294
-1296
-1295
-1295
-1295
-1296
-1296
-1298
-1300
-1303
-1304
-1305
-1306
-1306
-1307
-1307
-1308
-1309
-1309
-1308
-1309
-1309
-1309
-1309
-1309
-1309
-1309
-1309
-1310
-1310
-1310
-1310
-1310
-1310
-1309
-1309
-1310
-1311
-1313
-1315
-1319
-1325
-1332
-1340
-1347
-1353
-1358
-1356
-1345
-1328
-1308
-1279
-1236
-1180
-1116
-1052
-990
-932
-873
-814
-766
-725
-691
-667
-659
-684
-729
-783
-853
-937
-1027
-1114
-1196
-1268
-1313
-1327
-1332
-1332
-1326
-1319
-1313
-1308
-1300
-1293
-1287
-1283
-1280
-1279
-1279
-1280
-1281
-1281
-1281
-1281
-1280
-1280
-1281
-1281
-1280
-1280
-1280
-1279
-1279
-1278
-1277
-1276
-1276
-1276
-1275
-1275
-1275
-1273
-1272
-1270
-1270
-1269
-1268
-1268
-1267
-1267
-1266
-1265
-1264
-1263
-1260
-1260
-1259
-1258
-1257
-1257
-1255
-1254
-1252
-1250
-1248
-1246
-1245
-1245
-1243
-1243
-1240
-1239
-1237
-1235
-1232
-1230
-1229
-1227
-1225
-1223
-1221
-1218
-1216
-1212
-1209
-1207
-1204
-1201
-1199
-1196
-1194
-1190
-1186
-1183
-1179
-1175
-1172
-1170
-1167
-1164
-1161
-1158
-1155
-1152
-1148
-1146
-1144
-1142
-1141
-1139
-1137
-1135
-1133
-1132
-1130
-1129
-1129
-1129
-1129
-1130
-1132
-1134
-1135
-1137
-1140
-1143
-1148
-1153
-1158
-1163
-1169
-1174
-1180
-1186
-1191
-1197
-1203
-1210
-1215
-1222
-1226
-1232
-1236
-1241
-1244
-1248
-1252
-1256
-1259
-1262
-1264
-1267
-1269
-1271
-1272
-1272
-1274
-1276
-1278
-1279
-1280
-1280
-1280
-1280
-1281
-1282
-1282
-1283
-1284
-1285
-1285
-1284
-1283
-1284
-1284
-1285
-1285
-1285
-1285
-1284
-1283
-1283
-1283
-1283
-1283
-1282
-1283
-1283
-1283
-1283
-1283
-1282
-1282
-1282
-1281
-1281
-1280
-1281
-1281
-1280
-1280
-1281
-1280
-1279
-1279
-1280
-1279
-1280
-1280
-1280
-1280
-1279
-1279
-1278
-1278
-1279
-1279
-1279
-1279
-1280
-1280
-1280
-1280
-1279
-1279
-1280
-1280
-1281
-1282
-1282
-1283
-1282
-1282
-1282
-1282
-1283
-1283
-1284
-1285
-1285
-1285
-1285
-1285
-1285
-1285
-1286
-1286
-1287
-1287
-1286
-1286
-1287
-1287
-1286
-1286
-1287
-1288
-1288
-1289
-1289
-1289
-1289
-1288
-1289
-1289
-1289
-1289
-1290
-1290
-1291
-1291
-1290
-1290
-1289
-1289
-1290
-1290
-1291
-1291
-1291
-1291
-1291
-1291
-1291
-1290
-1290
-1290
-1292
-1293
-1293
-1293
-1292
-1291
-1291
-1291
-1291
-1291
-1291
-1292
-1292
-1293
-1291
-1291
-1291
-1290
-1291
-1291
-1291
-1292
-1292
-1292
-1292
-1292
-1292
-1292
-1292
-1292
-1292
-1292
-1293
-1293
-1292
-1291
-1291
-1291
-1291
-1292
-1293
-1294
-1294
-1293
-1293
-1292
-1292
-1292
-1292
-1292
-1292
-1292
-1293
-1293
-1293
-1292
-1292
-1292
-1292
-1292
-1292
-1292
-1293
-1293
-1293
-1292
-1291
-1292
-1293
-1293
-1293
-1292
-1292
-1292
-1292
-1290
-1289
-1289
-1288
-1289
-1289
-1288
-1285
-1284
-1282
-1281
-1281
-1282
-1282
-1282
-1282
-1282
-1281
-1278
-1274
-1270
-1267
-1266
-1267
-1270
-1272
-1275
-1277
-1279
-1280
-1282
-1282
-1284
-1285
-1285
-1285
-1287
-1289
-1291
-1292
-1294
-1295
-1295
-1295
-1296
-1297
-1298
-1298
-1298
-1298
-1298
-1298
-1298
-1298
-1298
-1298
-1299
-1299
-1299
-1299
-1297
-1298
-1298
-1299
-1300
-1300
-1299
-1301
-1303
-1306
-1311
-1317
-1325
-1333
-1339
-1343
-1341
-1332
-1314
-1291
-1261
-1217
-1162
-1102
-1040
-980
-925
-869
-818
-776
-736
-702
-679
-668
-689
-732
-785
-851
-931
-1013
-1102
-1183
-1256
-1298
-1312
-1320
-1327
-1328
-1322
-1314
-1307
-1300
-1292
-1284
-1280
-1276
-1273
-1271
-1271
-1270
-1269
-1269
-1269
-1270
-1270
-1271
-1270
-1270
-1270
-1269
-1268
-1267
-1266
-1265
-1265
-1265
-1265
-1265
-1263
-1263
-1262
-1261
-1261
-1259
-1259
-1259
-1258
-1258
-1255
-1254
-1253
-1251
-1249
-1250
-1250
-1248
-1247
-1245
-1245
-1244
-1242
-1240
-1238
-1238
-1236
-1235
-1234
-1233
-1231
-1229
-1227
-1225
-1224
-1223
-1221
-1219
-1217
-1215
-1213
-1210
-1207
-1205
-1203
-1201
-1198
-1196
-1193
-1192
-1188
-1184
-1180
-1177
-1174
-1172
-1169
-1166
-1163
-1160
-1157
-1154
-1150
-1147
-1145
-1143
-1141
-1139
-1137
-1135
-1133
-1131
-1128
-1127
-1126
-1126
-1125
-1125
-1125
-1126
-1126
-1126
-1127
-1129
-1132
-1135
-1139
-1144
-1149
-1153
-1157
-1163
-1167
-1173
-1179
-1185
-1191
-1197
-1202
-1208
-1212
-1217
-1221
-1225
-1230
-1234
-1239
-1242
-1245
-1248
-1250
-1253
-1254
-1256
-1259
-1261
-1262
-1264
-1266
-1267
-1267
-1267
-1268
-1268
-1269
-1270
-1271
-1272
-1272
-1273
-1273
-1273
-1272
-1272
-1273
-1273
-1274
-1274
-1274
-1274
-1273
-1273
-1272
-1272
-1272
-1273
-1273
-1273
-1272
-1272
-1272
-1271
-1271
-1270
-1270
-1270
-1271
-1271
-1270
-1270
-1269
-1269
-1268
-1268
-1268
-1268
-1268
-1268
-1268
-1268
-1267
-1267
-1267
-1267
-1267
-1268
-1268
-1269
-1269
-1269
-1269
-1268
-1268
-1268
-1268
-1269
-1270
-1271
-1271
-1271
-1271
-1271
-1271
-1271
-1271
-1272
-1273
-1274
-1274
-1274
-1274
-1274
-1275
-1275
-1276
-1276
-1277
-1278
-1279
-1278
-1278
-1277
-1277
-1278
-1278
-1279
-1280
-1280
-1280
-1281
-1281
-1280
-1281
-1281
-1281
-1282
-1282
-1282
-1282
-1282
-1282
-1282
-1282
-1282
-1282
-1283
-1283
-1284
-1284
-1284
-1284
-1283
-1283
-1284
-1284
-1284
-1285
-1285
-1285
-1285
-1285
-1284
-1284
-1285
-1285
-1285
-1286
-1286
-1286
-1285
-1285
-1285
-1284
-1284
-1285
-1285
-1286
-1286
-1286
-1286
-1286
-1285
-1285
-1285
-1286
-1286
-1287
-1287
-1287
-1287
-1287
-1286
-1286
-1286
-1286
-1287
-1287
-1287
-1287
-1287
-1286
-1286
-1286
-1285
-1286
-1286
-1284
-1284
-1284
-1284
-1283
-1282
-1280
-1278
-1277
-1277
-1277
-1277
-1277
-1276
-1276
-1276
-1275
-1274
-1271
-1268
-1265
-1264
-1264
-1266
-1268
-1270
-1272
-1274
-1277
-1278
-1280
-1281
-1281
-1282
-1281
-1282
-1284
-1286
-1289
-1291
-1291
-1292
-1293
-1294
-1294
-1294
-1294
-1295
-1295
-1295
-1296
-1297
-1296
-1297
-1296
-1296
-1296
-1296
-1296
-1296
-1297
-1298
-1298
-1298
-1297
-1297
-1298
-1300
-1303
-1308
-1314
-1323
-1330
-1336
-1341
-1342
-1337
-1326
-1307
-1285
-1250
-1202
-1142
-1079
-1015
-955
-898
-841
-792
-751
-713
-684
-661
-658
-684
-728
-782
-855
-939
-1028
-1119
-1201
-1271
-1302
-1311
-1317
-1320
-1317
-1311
-1305
-1301
-1294
-1286
-1280
-1276
-1272
-1270
-1269
-1270
-1271
-1271
-1272
-1272
-1271
-1271
-1270
-1270
-1271
-1270
-1270
-1270
-1270
-1269
-1268
-1267
-1267
-1266
-1266
-1266
-1265
-1265
-1263
-1263
-1262
-1260
-1260
-1259
-1258
-1258
-1257
-1256
-1255
-1254
-1253
-1251
-1250
-1248
-1248
-1247
-1246
-1245
-1245
-1243
-1241
-1239
-1237
-1236
-1235
-1234
-1233
-1231
-1229
-1228
-1225
-1222
-1220
-1218
-1217
-1215
-1213
-1210
-1208
-1205
-1203
-1200
-1197
-1194
-1191
-1188
-1186
-1182
-1179
-1176
-1173
-1169
-1165
-1161
-1159
-1157
-1154
-1152
-1149
-1146
-1143
-1141
-1139
-1137
-1135
-1133
-1132
-1131
-1130
-1128
-1127
-1126
-1125
-1126
-1126
-1127
-1130
-1133
-1135
-1137
-1142
-1145
-1150
-1154
-1160
-1167
-1173
-1179
-1185
-1190
-1196
-1201
-1207
-1213
-1219
-1225
-1230
-1235
-1239
-1243
-1246
-1250
-1253
-1255
-1259
-1262
-1264
-1267
-1268
-1269
-1271
-1273
-1274
-1275
-1276
-1278
-1279
-1279
-1280
-1280
-1280
-1280
-1280
-1281
-1282
-1282
-1283
-1283
-1283
-1283
-1283
-1282
-1283
-1284
-1283
-1283
-1283
-1284
-1283
-1283
-1282
-1282
-1282
-1281
-1281
-1282
-1282
-1282
-1281
-1281
-1281
-1281
-1280
-1279
-1280
-1280
-1281
-1280
-1280
-1279
-1279
-1278
-1278
-1278
-1278
-1279
-1279
-1279
-1280
-1280
-1279
-1279
-1279
-1279
-1279
-1280
-1281
-1282
-1282
-1281
-1281
-1281
-1281
-1282
-1283
-1283
-1283
-1284
-1284
-1284
-1284
-1284
-1284
-1285
-1286
-1286
-1287
-1287
-1287
-1287
-1288
-1287
-1287
-1288
-1288
-1289
-1290
-1291
-1291
-1291
-1290
-1289
-1290
-1290
-1291
-1291
-1292
-1292
-1292
-1292
-1293
-1292
-1292
-1293
-1294
-1294
-1294
-1294
-1294
-1295
-1294
-1294
-1294
-1294
-1295
-1296
-1296
-1296
-1296
-1296
-1295
-1295
-1295
-1295
-1296
-1297
-1296
-1297
-1297
-1296
-1296
-1296
-1295
-1296
-1298
-1298
-1297
-1298
-1297
-1297
-1297
-1297
-1296
-1297
-1297
-1297
-1298
-1299
-1299
-1299
-1298
-1298
-1297
-1297
-1299
-1299
-1299
-1300
-1299
-1299
-1298
-1298
-1299
-1299
-1299
-1299
-1300
-1300
-1299
-1299
-1299
-1299
-1299
-1299
-1300
-1301
-1301
-1300
-1300
-1300
-1300
-1299
-1299
-1299
-1300
-1300
-1301
-1302
-1301
-1301
-1300
-1300
-1300
-1300
-1301
-1300
-1301
-1301
-1301
-1301
-1300
-1300
-1300
-1300
-1301
-1302
-1302
-1301
-1301
-1300
-1299
-1299
-1298
-1298
-1298
-1298
-1298
-1297
-1296
-1293
-1290
-1289
-1290
-1290
-1290
-1290
-1291
-1291
-1291
-1289
-1285
-1281
-1280
-1278
-1279
-1282
-1284
-1286
-1287
-1289
-1291
-1293
-1294
-1294
-1295
-1295
-1296
-1297
-1299
-1301
-1302
-1302
-1304
-1306
-1307
-1307
-1308
-1309
-1308
-1308
-1308
-1308
-1308
-1309
-1309
-1310
-1310
-1310
-1310
-1310
-1309
-1309
-1309
-1309
-1310
-1311
-1311
-1311
-1313
-1314
-1317
-1322
-1329
-1338
-1346
-1352
-1358
-1358
-1350
-1335
-1314
-1290
-1252
-1199
-1139
-1074
-1011
-951
-891
-831
-779
-737
-701
-675
-661
-675
-715
-765
-825
-903
-991
-1078
-1163
-1240
-1299
-1324
-1331
-1333
-1327
-1320
-1313
-1308
-1302
-1295
-1290
-1286
-1283
-1281
-1280
-1280
-1280
-1280
-1282
-1282
-1282
-1283
-1283
-1282
-1282
-1281
-1280
-1279
-1279
-1279
-1279
-1278
-1278
-1278
-1277
-1275
-1274
-1273
-1273
-1272
-1272
-1272
-1271
-1270
-1269
-1267
-1266
-1265
-1264
-1264
-1262
-1262
-1261
-1260
-1258
-1257
-1255
-1254
-1253
-1252
-1251
-1250
-1249
-1248
-1246
-1243
-1241
-1240
-1239
-1237
-1235
-1234
-1232
-1229
-1227
-1224
-1221
-1219
-1218
-1216
-1213
-1211
-1209
-1205
-1202
-1199
-1195
-1192
-1189
-1186
-1183
-1180
-1176
-1173
-1170
-1166
-1163
-1159
-1156
-1154
-1152
-1150
-1148
-1145
-1142
-1138
-1136
-1135
-1134
-1133
-1131
-1131
-1129
-1129
-1128
-1129
-1129
-1129
-1131
-1134
-1137
-1141
-1145
-1149
-1153
-1158
-1163
-1169
-1175
-1181
-1188
-1194
-1200
-1206
-1212
-1217
-1221
-1227
-1233
-1238
-1242
-1247
-1251
-1254
-1257
-1259
-1262
-1265
-1267
-1270
-1273
-1274
-1276
-1276
-1277
-1279
-1279
-1280
-1281
-1282
-1283
-1283
-1283
-1284
-1283
-1283
-1283
-1283
-1284
-1284
-1285
-1285
-1285
-1286
-1285
-1284
-1284
-1284
-1284
-1284
-1284
-1284
-1284
-1283
-1283
-1282
-1282
-1282
-1282
-1283
-1283
-1283
-1283
-1283
-1282
-1281
-1281
-1280
-1281
-1281
-1281
-1281
-1281
-1281
-1280
-1280
-1280
-1280
-1281
-1281
-1281
-1282
-1282
-1282
-1282
-1281
-1281
-1281
-1281
-1283
-1283
-1283
-1283
-1283
-1283
-1282
-1282
-1283
-1283
-1284
-1285
-1286
-1286
-1286
-1286
-1286
-1285
-1285
-1285
-1286
-1287
-1287
-1287
-1288
-1287
-1286
-1286
-1287
-1288
-1289
-1290
-1291
-1291
-1290
-1290
-1290
-1290
-1290
-1291
-1291
-1291
-1291
-1292
-1292
-1291
-1291
-1291
-1291
-1292
-1292
-1293
-1292
-1292
-1292
-1292
-1292
-1292
-1292
-1293
-1293
-1292
-1293
-1293
-1292
-1293
-1293
-1292
-1292
-1293
-1293
-1294
-1294
-1294
-1293
-1293
-1293
-1292
-1292
-1293
-1293
-1293
-1293
-1293
-1294
-1293
-1293
-1292
-1293
-1293
-1293
-1294
-1293
-1293
-1294
-1293
-1292
-1292
-1292
-1294
-1294
-1293
-1293
-1294
-1293
-1292
-1292
-1292
-1292
-1292
-1292
-1292
-1293
-1293
-1294
-1293
-1293
-1293
-1292
-1292
-1292
-1293
-1294
-1293
-1294
-1293
-1292
-1292
-1293
-1293
-1293
-1294
-1294
-1293
-1292
-1292
-1292
-1291
-1290
-1290
-1290
-1290
-1290
-1290
-1289
-1288
-1284
-1282
-1281
-1282
-1282
-1282
-1282
-1282
-1282
-1282
-1279
-1276
-1274
-1271
-1269
-1268
-1270
-1273
-1276
-1278
-1278
-1280
-1284
-1285
-1285
-1285
-1286
-1286
-1286
-1287
-1289
-1291
-1292
-1294
-1296
-1296
-1296
-1296
-1298
-1297
-1297
-1297
-1298
-1298
-1299
-1299
-1299
-1299
-1299
-1298
-1298
-1298
-1298
-1298
-1299
-1300
-1300
-1299
-1299
-1299
-1300
-1303
-1308
-1316
-1324
-1331
-1337
-1342
-1342
-1335
-1321
-1301
-1278
-1241
-1191
-1133
-1072
-1010
-953
-898
-843
-797
-756
-719
-692
-672
-674
-706
-753
-810
-883
-966
-1054
-1141
-1218
-1281
-1306
-1315
-1322
-1325
-1323
-1316
-1309
-1304
-1296
-1288
-1282
-1278
-1274
-1270
-1269
-1269
-1269
-1270
-1271
-1271
-1271
-1271
-1270
-1269
-1268
-1269
-1269
-1269
-1269
-1269
-1268
-1267
-1266
-1264
-1264
-1263
-1263
-1262
-1262
-1261
-1260
-1260
-1258
-1257
-1256
-1255
-1254
-1254
-1254
-1253
-1251
-1250
-1249
-1248
-1245
-1245
-1245
-1243
-1243
-1241
-1240
-1239
-1237
-1235
-1234
-1232
-1231
-1229
-1228
-1226
-1225
-1223
-1221
-1218
-1216
-1214
-1212
-1211
-1209
-1206
-1203
-1200
-1197
-1194
-1191
-1188
-1186
-1184
-1180
-1178
-1175
-1172
-1168
-1163
-1160
-1157
-1156
-1154
-1151
-1149
-1147
-1144
-1142
-1139
-1137
-1136
-1134
-1133
-1132
-1131
-1130
-1129
-1128
-1128
-1128
-1128
-1129
-1131
-1134
-1137
-1140
-1144
-1147
-1151
-1157
-1162
-1168
-1174
-1180
-1186
-1191
-1197
-1202
-1207
-1213
-1218
-1224
-1229
-1234
-1238
-1241
-1245
-1247
-1250
-1253
-1256
-1259
-1262
-1264
-1266
-1268
-1269
-1269
-1270
-1271
-1272
-1274
-1275
-1276
-1277
-1277
-1278
-1278
-1277
-1277
-1278
-1279
-1279
-1279
-1280
-1280
-1280
-1280
-1279
-1278
-1279
-1279
-1279
-1280
-1280
-1280
-1280
-1279
-1278
-1277
-1278
-1278
-1278
-1278
-1278
-1278
-1277
-1276
-1276
-1276
-1276
-1276
-1277
-1277
-1277
-1277
-1276
-1275
-1275
-1275
-1275
-1276
-1276
-1277
-1277
-1277
-1277
-1276
-1275
-1276
-1277
-1277
-1278
-1277
-1278
-1279
-1278
-1278
-1278
-1279
-1280
-1280
-1281
-1281
-1281
-1281
-1281
-1281
-1281
-1282
-1282
-1282
-1283
-1284
-1285
-1284
-1284
-1284
-1284
-1284
-1285
-1286
-1286
-1287
-1287
-1287
-1287
-1286
-1286
-1286
-1287
-1288
-1289
-1289
-1289
-1289
-1289
-1288
-1289
-1289
-1290
-1290
-1291
-1291
-1291
-1292
-1291
-1290
-1290
-1291
-1291
-1291
-1292
-1293
-1292
-1292
-1292
-1292
-1291
-1291
-1293
-1293
-1293
-1293
-1294
-1293
-1293
-1293
-1292
-1293
-1293
-1294
-1294
-1294
-1294
-1295
-1294
-1293
-1294
-1294
-1294
-1293
-1295
-1295
-1295
-1295
-1295
-1294
-1295
-1295
-1295
-1295
-1295
-1296
-1295
-1295
-1295
-1295
-1295
-1295
-1296
-1295
-1296
-1296
-1297
-1296
-1296
-1296
-1295
-1295
-1296
-1297
-1296
-1297
-1297
-1297
-1296
-1296
-1296
-1296
-1297
-1297
-1298
-1297
-1296
-1296
-1295
-1294
-1293
-1292
-1292
-1293
-1293
-1292
-1291
-1288
-1286
-1285
-1284
-1285
-1285
-1286
-1287
-1288
-1287
-1283
-1281
-1277
-1275
-1273
-1274
-1278
-1281
-1283
-1284
-1287
-1289
-1290
-1290
-1290
-1291
-1292
-1293
-1294
-1296
-1297
-1298
-1300
-1301
-1301
-1302
-1303
-1304
-1304
-1305
-1305
-1305
-1305
-1305
-1305
-1306
-1307
-1306
-1306
-1307
-1307
-1306
-1306
-1305
-1306
-1306
-1307
-1308
-1308
-1310
-1312
-1315
-1321
-1328
-1336
-1344
-1351
-1356
-1354
-1343
-1326
-1304
-1275
-1232
-1176
-1114
-1049
-986
-926
-867
-809
-760
-720
-687
-661
-653
-675
-720
-771
-839
-922
-1011
-1099
-1182
-1257
-1306
-1322
-1327
-1327
-1322
-1315
-1308
-1304
-1296
-1289
-1285
-1281
-1279
-1277
-1277
-1277
-1277
-1278
-1278
-1279
-1279
-1280
-1280
-1280
-1280
-1278
-1277
-1276
-1276
-1277
-1276
-1276
-1275
-1276
-1274
-1274
-1273
-1271
-1271
-1271
-1270
-1270
-1269
-1268
-1266
-1266
-1265
-1263
-1261
-1261
-1260
-1260
-1259
-1258
-1257
-1256
-1254
-1252
-1251
-1249
-1249
-1248
-1247
-1246
-1244
-1241
-1240
-1238
-1237
-1235
-1233
-1232
-1229
-1227
-1225
-1223
-1220
-1217
-1215
-1213
-1211
-1209
-1206
-1203
-1200
-1197
-1193
-1190
-1187
-1184
-1181
-1178
-1175
-1171
-1168
-1165
-1162
-1158
-1155
-1153
-1150
-1148
-1146
-1144
-1142
-1138
-1135
-1134
-1133
-1132
-1131
-1131
-1130
-1130
-1129
-1129
-1130
-1131
-1133
-1135
-1138
-1142
-1147
-1152
-1156
-1160
-1167
-1171
-1177
-1185
-1191
-1197
-1205
-1210
-1214
-1219
-1225
-1230
-1235
-1241
-1246
-1250
-1254
-1258
-1260
-1263
-1265
-1267
-1270
-1272
-1274
-1277
-1279
-1279
-1280
-1281
-1282
-1282
-1283
-1284
-1286
-1286
-1287
-1287
-1287
-1287
-1286
-1286
-1287
-1288
-1289
-1288
-1288
-1289
-1288
-1288
-1287
-1286
-1287
-1288
-1287
-1288
-1288
-1287
-1287
-1286
-1285
-1286
-1285
-1285
-1285
-1286
-1286
-1286
-1286
-1285
-1284
-1283
-1284
-1284
-1285
-1285
-1285
-1284
-1284
-1284
-1284
-1284
-1284
-1284
-1285
-1285
-1286
-1286
-1286
-1285
-1286
-1285
-1286
-1286
-1287
-1288
-1288
-1288
-1288
-1288
-1288
-1287
-1288
-1289
-1290
-1290
-1290
-1290
-1290
-1290
-1290
-1290
-1291
-1292
-1292
-1293
-1293
-1294
-1294
-1293
-1293
-1293
-1294
-1294
-1294
-1295
-1295
-1295
-1295
-1295
-1295
-1295
-1296
-1296
-1297
-1297
-1297
-1297
-1298
-1296
-1296
-1296
-1297
-1297
-1298
-1298
-1298
-1298
-1297
-1297
-1297
-1297
-1298
-1298
-1298
-1299
-1299
-1299
-1298
-1297
-1298
-1298
-1298
-1298
-1299
-1299
-1299
-1300
-1299
-1299
-1298
-1298
-1299
-1300
-1300
-1301
-1301
-1300
-1300
-1299
-1299
-1298
-1299
-1300
-1300
-1300
-1300
-1300
-1300
-1299
-1299
-1299
-1299
-1300
-1300
-1300
-1300
-1301
-1300
-1299
-1299
-1299
-1300
-1300
-1300
-1301
-1300
-1300
-1300
-1299
-1299
-1299
-1299
-1300
-1299
-1300
-1300
-1299
-1300
-1299
-1298
-1299
-1299
-1300
-1300
-1301
-1301
-1300
-1299
-1299
-1299
-1299
-1299
-1299
-1300
-1300
-1300
-1299
-1300
-1299
-1299
-1299
-1299
-1299
-1299
-1299
-1299
-1298
-1298
-1296
-1295
-1295
-1295
-1294
-1294
-1293
-1292
-1290
-1288
-1286
-1286
-1286
-1286
-1287
-1288
-1288
-1287
-1284
-1281
-1277
-1275
-1273
-1274
-1277
-1280
-1282
-1284
-1285
-1287
-1289
-1289
-1289
-1290
-1291
-1293
-1294
-1295
-1297
-1299
-1298
-1299
-1301
-1301
-1302
-1303
-1304
-1304
-1304
-1303
-1304
-1304
-1304
-1304
-1304
-1305
-1305
-1305
-1305
-1304
-1303
-1303
-1304
-1306
-1306
-1306
-1307
-1307
-1309
-1313
-1318
-1325
-1333
-1341
-1348
-1352
-1349
-1339
-1321
-1300
-1270
-1226
-1170
-1108
-1044
-984
-926
-868
-811
-764
-725
-691
-667
-660
-684
-729
-781
-850
-933
-1021
-1109
-1192
-1265
-1309
-1323
-1328
-1329
-1323
-1316
-1308
-1302
-1295
-1288
-1283
-1280
-1277
-1274
-1275
-1274
-1274
-1274
-1274
-1275
-1276
-1275
-1275
-1275
-1275
-1275
-1273
-1273
-1272
-1272
-1272
-1271
-1271
-1271
-1270
-1268
-1267
-1267
-1266
-1265
-1265
-1264
-1263
-1263
-1262
-1261
-1259
-1258
-1257
-1256
-1256
-1254
-1253
-1252
-1251
-1249
-1248
-1246
-1245
-1244
-1243
-1242
-1241
-1240
-1238
-1236
-1234
-1232
-1231
-1229
-1228
-1226
-1225
-1224
-1221
-1218
-1216
-1213
-1212
-1209
-1207
-1205
-1203
-1199
-1196
-1193
-1190
-1186
-1184
-1182
-1178
-1175
-1173
-1169
-1166
-1162
-1158
-1155
-1153
-1151
-1149
-1146
-1145
-1142
-1140
-1137
-1134
-1133
-1131
-1130
-1129
-1129
-1128
-1127
-1127
-1126
-1126
-1127
-1128
-1131
-1133
-1137
-1141
-1145
-1149
-1153
-1158
-1163
-1169
-1175
-1181
-1187
-1193
-1200
-1205
-1210
-1215
-1220
-1225
-1230
-1235
-1239
-1243
-1246
-1249
-1253
-1255
-1257
-1259
-1262
-1264
-1265
-1267
-1269
-1270
-1271
-1271
-1272
-1273
-1274
-1275
-1277
-1277
-1276
-1277
-1277
-1276
-1276
-1276
-1277
-1277
-1278
-1278
-1278
-1277
-1277
-1277
-1276
-1276
-1276
-1276
-1277
-1276
-1275
-1275
-1274
-1274
-1274
-1274
-1274
-1275
-1275
-1276
-1275
-1275
-1274
-1274
-1274
-1274
-1274
-1273
-1274
-1274
-1274
-1274
-1273
-1273
-1273
-1274
-1274
-1275
-1275
-1276
-1276
-1276
-1275
-1275
-1275
-1275
-1276
-1277
-1277
-1277
-1278
-1278
-1277
-1277
-1278
-1278
-1279
-1280
-1280
-1281
-1281
-1281
-1280
-1281
-1281
-1281
-1281
-1282
-1282
-1282
-1282
-1283
-1283
-1283
-1282
-1282
-1283
-1284
-1285
-1286
-1287
-1286
-1285
-1285
-1285
-1284
-1285
-1285
-1286
-1286
-1286
-1286
-1286
-1286
-1286
-1286
-1287
-1287
-1287
-1287
-1287
-1287
-1286
-1286
-1287
-1287
-1287
-1287
-1288
-1287
-1287
-1287
-1287
-1287
-1287
-1287
-1287
-1288
-1288
-1288
-1287
-1288
-1287
-1287
-1287
-1287
-1288
-1288
-1288
-1288
-1288
-1288
-1287
-1287
-1287
-1287
-1287
-1288
-1288
-1289
-1289
-1288
-1288
-1287
-1287
-1287
-1288
-1288
-1289
-1289
-1289
-1289
-1289
-1288
-1287
-1287
-1287
-1287
-1288
-1288
-1288
-1288
-1288
-1288
-1288
-1288
-1288
-1289
-1289
-1288
-1289
-1288
-1287
-1288
-1287
-1288
-1288
-1288
-1288
-1288
-1288
-1287
-1286
-1284
-1285
-1285
-1284
-1284
-1284
-1283
-1282
-1279
-1278
-1276
-1277
-1277
-1277
-1277
-1278
-1277
-1276
-1272
-1268
-1265
-1263
-1263
-1264
-1267
-1271
-1273
-1274
-1275
-1277
-1279
-1279
-1280
-1281
-1281
-1283
-1284
-1286
-1288
-1288
-1289
-1289
-1290
-1291
-1292
-1293
-1293
-1294
-1294
-1294
-1293
-1294
-1295
-1295
-1295
-1296
-1296
-1296
-1295
-1294
-1294
-1294
-1295
-1295
-1295
-1295
-1295
-1298
-1301
-1305
-1311
-1318
-1325
-1332
-1337
-1337
-1329
-1315
-1295
-1269
-1231
-1182
-1125
-1064
-1004
-947
-894
-840
-797
-758
-722
-697
-679
-681
-711
-758
-815
-889
-971
-1057
-1143
-1220
-1279
-1302
-1311
-1318
-1324
-1322
-1315
-1308
-1302
-1295
-1287
-1281
-1276
-1273
-1270
-1269
-1268
-1267
-1268
-1269
-1269
-1269
-1269
-1268
-1268
-1268
-1267
-1266
-1265
-1265
-1265
-1265
-1264
-1264
-1263
-1262
-1261
-1261
-1259
-1259
-1259
-1258
-1257
-1257
-1256
-1255
-1253
-1252
-1251
-1250
-1250
-1249
-1249
-1248
-1246
-1244
-1243
-1241
-1240
-1239
-1238
-1237
-1237
-1236
-1234
-1232
-1231
-1229
-1227
-1224
-1224
-1223
-1221
-1220
-1218
-1215
-1212
-1210
-1208
-1206
-1204
-1202
-1200
-1196
-1194
-1191
-1188
-1185
-1181
-1178
-1176
-1173
-1171
-1167
-1165
-1162
-1158
-1155
-1152
-1150
-1148
-1146
-1144
-1141
-1140
-1138
-1135
-1133
-1131
-1130
-1130
-1129
-1129
-1128
-1127
-1127
-1127
-1127
-1129
-1131
-1134
-1137
-1141
-1145
-1149
-1154
-1158
-1163
-1168
-1175
-1180
-1186
-1192
-1198
-1203
-1209
-1213
-1217
-1223
-1228
-1233
-1237
-1241
-1244
-1247
-1250
-1253
-1255
-1257
-1260
-1261
-1263
-1265
-1266
-1267
-1268
-1268
-1269
-1270
-1272
-1273
-1273
-1274
-1274
-1275
-1274
-1274
-1274
-1273
-1274
-1275
-1275
-1275
-1276
-1276
-1276
-1275
-1274
-1274
-1274
-1275
-1275
-1275
-1275
-1275
-1275
-1273
-1273
-1273
-1273
-1273
-1273
-1273
-1273
-1273
-1272
-1273
-1272
-1271
-1272
-1272
-1272
-1273
-1273
-1273
-1273
-1273
-1272
-1272
-1273
-1273
-1274
-1275
-1275
-1274
-1274
-1275
-1274
-1274
-1275
-1276
-1276
-1277
-1277
-1277
-1277
-1277
-1277
-1278
-1278
-1278
-1278
-1279
-1280
-1281
-1280
-1279
-1280
-1280
-1281
-1282
-1282
-1282
-1283
-1283
-1283
-1283
-1283
-1284
-1284
-1285
-1287
-1287
-1286
-1286
-1286
-1285
-1285
-1286
-1287
-1287
-1289
-1290
-1289
-1288
-1288
-1288
-1288
-1288
-1289
-1289
-1289
-1290
-1290
-1290
-1290
-1290
-1288
-1290
-1290
-1291
-1290
-1291
-1290
-1291
-1291
-1291
-1290
-1290
-1291
-1291
-1291
-1292
-1292
-1292
-1291
-1291
-1291
-1291
-1291
-1292
-1292
-1293
-1293
-1292
-1293
-1294
-1292
-1292
-1292
-1294
-1294
-1293
-1293
-1294
-1294
-1294
-1293
-1293
-1293
-1294
-1294
-1295
-1295
-1294
-1294
-1293
-1294
-1294
-1294
-1293
-1294
-1296
-1297
-1296
-1295
-1295
-1295
-1294
-1296
-1296
-1296
-1297
-1296
-1296
-1295
-1294
-1296
-1295
-1295
-1295
-1296
-1296
-1294
-1293
-1291
-1291
-1291
-1293
-1292
-1290
-1287
-1287
-1286
-1286
-1286
-1284
-1284
-1286
-1285
-1286
-1284
-1281
-1278
-1276
-1274
-1273
-1276
-1279
-1282
-1285
-1286
-1288
-1290
-1291
-1291
-1290
-1290
-1290
-1292
-1295
-1299
-1299
-1300
-1301
-1301
-1301
-1302
-1304
-1304
-1305
-1305
-1305
-1304
-1305
-1304
-1304
-1305
-1304
-1305
-1305
-1305
-1305
-1306
-1306
-1306
-1307
-1306
-1307
-1308
-1309
-1312
-1315
-1322
-1329
-1337
-1345
-1350
-1354
-1351
-1341
-1324
-1301
-1271
-1226
-1168
-1104
-1040
-978
-919
-860
-803
-757
-717
-684
-660
-653
-677
-722
-777
-847
-932
-1022
-1111
-1193
-1265
-1308
-1321
-1326
-1327
-1323
-1316
-1310
-1305
-1297
-1289
-1285
-1280
-1278
-1277
-1277
-1277
-1278
-1280
-1279
-1278
-1278
-1278
-1279
-1279
-1278
-1278
-1278
-1278
-1277
-1276
-1275
-1275
-1274
-1275
-1273
-1275
-1275
-1272
-1271
-1270
-1269
-1269
-1269
-1268
-1267
-1266
-1265
-1263
-1262
-1262
-1260
-1259
-1259
-1257
-1255
-1255
-1255
-1253
-1252
-1249
-1248
-1247
-1247
-1246
-1245
-1243
-1240
-1238
-1238
-1235
-1233
-1231
-1230
-1228
-1225
-1223
-1222
-1219
-1216
-1214
-1211
-1208
-1206
-1203
-1201
-1199
-1195
-1191
-1188
-1184
-1181
-1177
-1175
-1173
-1169
-1166
-1163
-1159
-1157
-1154
-1152
-1149
-1148
-1147
-1145
-1144
-1141
-1139
-1136
-1134
-1132
-1133
-1133
-1132
-1132
-1133
-1133
-1134
-1136
-1139
-1141
-1144
-1148
-1152
-1156
-1161
-1168
-1173
-1179
-1185
-1192
-1198
-1204
-1211
-1217
-1222
-1227
-1232
-1237
-1241
-1245
-1248
-1254
-1257
-1261
-1265
-1268
-1271
-1272
-1274
-1275
-1277
-1278
-1280
-1282
-1283
-1284
-1285
-1285
-1287
-1286
-1288
-1288
-1289
-1290
-1290
-1289
-1288
-1289
-1288
-1288
-1289
-1290
-1289
-1289
-1290
-1291
-1290
-1290
-1288
-1288
-1287
-1287
-1288
-1287
-1289
-1288
-1287
-1287
-1286
-1286
-1286
-1287
-1287
-1286
-1286
-1286
-1286
-1285
-1286
-1286
-1285
-1285
-1287
-1287
-1287
-1288
-1287
-1286
-1286
-1286
-1287
-1287
-1287
-1289
-1289
-1289
-1289
-1288
-1287
-1288
-1289
-1289
-1290
-1290
-1290
-1290
-1290
-1290
-1290
-1291
-1292
-1292
-1292
-1293
-1293
-1294
-1294
-1294
-1293
-1293
-1293
-1293
-1294
-1295
-1295
-1295
-1296
-1295
-1295
-1295
-1296
-1297
-1298
-1298
-1298
-1299
-1298
-1299
-1298
-1297
-1298
-1298
-1299
-1299
-1299
-1299
-1299
-1299
-1298
-1298
-1300
-1300
-1301
-1302
-1301
-1301
-1301
-1300
-1298
-1299
-1300
-1301
-1301
-1302
-1301
-1301
-1301
-1301
-1301
-1300
-1301
-1302
-1301
-1301
-1301
-1302
-1301
-1300
-1300
-1300
-1301
-1302
-1303
-1303
-1303
-1303
-1303
-1301
-1301
-1301
-1301
-1302
-1302
-1303
-1302
-1302
-1302
-1301
-1301
-1302
-1303
-1302
-1302
-1303
-1303
-1302
-1302
-1302
-1301
-1301
-1302
-1302
-1303
-1302
-1303
-1302
-1303
-1302
-1302
-1301
-1302
-1303
-1303
-1303
-1303
-1303
-1303
-1301
-1301
-1301
-1301
-1301
-1302
-1303
-1303
-1304
-1303
-1302
-1300
-1300
-1300
-1299
-1298
-1298
-1300
-1298
-1298
-1296
-1297
-1295
-1293
-1291
-1291
-1290
-1290
-1290
-1290
-1289
-1289
-1288
-1286
-1283
-1280
-1279
-1277
-1277
-1280
-1281
-1283
-1285
-1288
-1290
-1293
-1294
-1295
-1295
-1295
-1295
-1296
-1298
-1301
-1303
-1305
-1306
-1307
-1307
-1306
-1305
-1306
-1307
-1308
-1308
-1308
-1308
-1309
-1309
-1309
-1308
-1308
-1308
-1309
-1309
-1310
-1310
-1310
-1310
-1310
-1308
-1309
-1311
-1314
-1317
-1324
-1332
-1340
-1347
-1352
-1355
-1351
-1340
-1322
-1300
-1270
-1225
-1166
-1103
-1038
-977
-920
-861
-806
-761
-722
-688
-664
-660
-685
-731
-786
-859
-944
-1033
-1122
-1204
-1274
-1313
-1324
-1329
-1331
-1326
-1320
-1314
-1310
-1303
-1295
-1289
-1284
-1281
-1279
-1278
-1278
-1280
-1281
-1282
-1281
-1281
-1280
-1279
-1279
-1280
-1278
-1280
-1280
-1279
-1278
-1278
-1276
-1275
-1274
-1273
-1274
-1273
-1273
-1272
-1271
-1270
-1269
-1267
-1267
-1265
-1265
-1265
-1264
-1263
-1263
-1261
-1260
-1259
-1257
-1256
-1255
-1254
-1253
-1252
-1250
-1249
-1247
-1245
-1244
-1243
-1242
-1240
-1239
-1237
-1235
-1233
-1230
-1229
-1227
-1226
-1225
-1222
-1220
-1218
-1216
-1213
-1209
-1206
-1204
-1201
-1199
-1196
-1194
-1191
-1187
-1184
-1180
-1175
-1172
-1170
-1168
-1166
-1164
-1160
-1158
-1155
-1152
-1149
-1147
-1145
-1144
-1142
-1141
-1139
-1138
-1136
-1134
-1133
-1132
-1132
-1133
-1133
-1135
-1137
-1138
-1138
-1142
-1145
-1149
-1154
-1158
-1165
-1170
-1176
-1182
-1187
-1192
-1197
-1204
-1210
-1215
-1221
-1226
-1231
-1236
-1240
-1243
-1246
-1249
-1254
-1258
-1261
-1263
-1265
-1267
-1269
-1270
-1272
-1273
-1274
-1276
-1277
-1278
-1278
-1279
-1280
-1279
-1279
-1280
-1281
-1281
-1281
-1282
-1282
-1282
-1282
-1281
-1279
-1279
-1280
-1280
-1281
-1281
-1281
-1281
-1281
-1280
-1279
-1279
-1279
-1279
-1280
-1279
-1280
-1280
-1279
-1278
-1278
-1278
-1278
-1278
-1278
-1278
-1278
-1279
-1279
-1277
-1277
-1276
-1277
-1277
-1277
-1278
-1279
-1279
-1279
-1278
-1278
-1279
-1279
-1279
-1280
-1280
-1281
-1281
-1280
-1280
-1280
-1280
-1281
-1281
-1282
-1283
-1283
-1283
-1283
-1283
-1283
-1284
-1284
-1285
-1285
-1286
-1286
-1286
-1286
-1285
-1285
-1285
-1285
-1285
-1287
-1287
-1287
-1287
-1288
-1287
-1287
-1287
-1288
-1288
-1289
-1289
-1289
-1288
-1287
-1287
-1288
-1289
-1290
-1290
-1290
-1290
-1291
-1291
-1290
-1289
-1289
-1290
-1291
-1292
-1292
-1292
-1293
-1291
-1290
-1289
-1289
-1290
-1291
-1292
-1291
-1292
-1292
-1291
-1291
-1290
-1290
-1291
-1292
-1292
-1292
-1292
-1292
-1292
-1291
-1291
-1291
-1291
-1292
-1292
-1292
-1292
-1292
-1292
-1291
-1291
-1291
-1292
-1293
-1293
-1293
-1293
-1293
-1294
-1292
-1293
-1293
-1293
-1294
-1294
-1294
-1293
-1293
-1293
-1293
-1292
-1292
-1293
-1293
-1293
-1293
-1293
-1292
-1291
-1291
-1290
-1289
-1289
-1289
-1288
-1287
-1285
-1284
-1283
-1283
-1282
-1282
-1282
-1282
-1282
-1281
-1278
-1273
-1270
-1269
-1267
-1268
-1272
-1275
-1277
-1280
-1283
-1284
-1285
-1285
-1285
-1287
-1287
-1289
-1291
-1293
-1295
-1297
-1298
-1298
-1298
-1297
-1299
-1300
-1301
-1301
-1301
-1301
-1301
-1301
-1301
-1301
-1302
-1303
-1303
-1303
-1302
-1302
-1301
-1300
-1301
-1302
-1302
-1302
-1302
-1305
-1308
-1313
-1318
-1325
-1331
-1339
-1343
-1344
-1336
-1322
-1302
-1275
-1235
-1184
-1126
-1066
-1005
-950
-896
-843
-801
-764
-728
-702
-684
-686
-718
-765
-825
-901
-983
-1069
-1156
-1232
-1287
-1307
-1315
-1324
-1329
-1327
-1322
-1315
-1308
-1301
-1292
-1286
-1282
-1279
-1277
-1276
-1276
-1275
-1275
-1275
-1275
-1276
-1277
-1276
-1276
-1275
-1275
-1274
-1273
-1272
-1272
-1272
-1271
-1271
-1271
-1271
-1270
-1270
-1268
-1266
-1265
-1264
-1264
-1263
-1263
-1263
-1261
-1261
-1259
-1258
-1257
-1257
-1256
-1254
-1254
-1252
-1252
-1251
-1249
-1247
-1245
-1245
-1244
-1243
-1242
-1240
-1238
-1237
-1235
-1232
-1230
-1229
-1228
-1226
-1225
-1223
-1222
-1219
-1216
-1212
-1211
-1208
-1205
-1204
-1202
-1199
-1196
-1193
-1189
-1186
-1183
-1180
-1178
-1175
-1172
-1169
-1165
-1163
-1161
-1157
-1155
-1153
-1152
-1149
-1147
-1146
-1144
-1142
-1140
-1139
-1137
-1137
-1137
-1136
-1136
-1136
-1136
-1137
-1138
-1139
-1142
-1145
-1149
-1154
-1159
-1164
-1168
-1173
-1178
-1183
-1189
-1195
-1201
-1207
-1213
-1219
-1224
-1228
-1232
-1236
-1240
-1244
-1249
-1254
-1257
-1259
-1262
-1265
-1266
-1267
-1269
-1271
-1274
-1275
-1276
-1277
-1277
-1278
-1279
-1279
-1280
-1280
-1281
-1282
-1283
-1283
-1283
-1283
-1282
-1282
-1282
-1283
-1283
-1284
-1284
-1284
-1284
-1283
-1282
-1282
-1281
-1281
-1283
-1283
-1283
-1283
-1283
-1282
-1281
-1281
-1280
-1280
-1281
-1281
-1281
-1281
-1281
-1281
-1280
-1279
-1279
-1280
-1281
-1281
-1281
-1281
-1281
-1281
-1280
-1280
-1281
-1281
-1282
-1282
-1283
-1283
-1283
-1282
-1282
-1282
-1283
-1283
-1284
-1285
-1285
-1285
-1285
-1285
-1285
-1285
-1285
-1286
-1287
-1287
-1289
-1289
-1289
-1289
-1289
-1289
-1289
-1290
-1291
-1291
-1291
-1292
-1292
-1291
-1291
-1292
-1291
-1292
-1293
-1293
-1294
-1293
-1293
-1294
-1293
-1294
-1295
-1294
-1295
-1296
-1296
-1297
-1296
-1295
-1295
-1294
-1296
-1296
-1296
-1297
-1298
-1297
-1297
-1297
-1297
-1296
-1296
-1297
-1297
-1297
-1298
-1299
-1298
-1298
-1297
-1297
-1297
-1298
-1299
-1299
-1298
-1299
-1298
-1298
-1298
-1298
-1298
-1299
-1299
-1300
-1300
-1300
-1300
-1299
-1298
-1298
-1298
-1299
-1299
-1300
-1300
-1300
-1300
-1299
-1299
-1299
-1299
-1300
-1300
-1301
-1301
-1301
-1300
-1301
-1300
-1299
-1300
-1301
-1301
-1301
-1301
-1301
-1301
-1300
-1299
-1299
-1300
-1302
-1302
-1302
-1302
-1303
-1301
-1300
-1301
-1301
-1301
-1300
-1301
-1301
-1300
-1299
-1298
-1297
-1296
-1296
-1296
-1295
-1293
-1291
-1291
-1291
-1290
-1290
-1290
-1289
-1290
-1291
-1290
-1287
-1282
-1279
-1278
-1277
-1279
-1281
-1283
-1286
-1289
-1291
-1292
-1293
-1294
-1294
-1294
-1295
-1296
-1298
-1301
-1303
-1304
-1306
-1305
-1304
-1305
-1304
-1307
-1308
-1309
-1309
-1310
-1309
-1309
-1310
-1309
-1308
-1310
-1310
-1310
-1311
-1310
-1311
-1311
-1310
-1310
-1311
-1310
-1312
-1315
-1319
-1325
-1331
-1339
-1347
-1352
-1356
-1357
-1349
-1334
-1315
-1289
-1250
-1196
-1134
-1069
-1005
-945
-887
-831
-780
-739
-703
-675
-660
-672
-710
-760
-824
-905
-995
-1085
-1169
-1246
-1302
-1322
-1329
-1332
-1328
-1324
-1318
-1312
-1307
-1299
-1293
-1288
-1285
-1282
-1282
-1283
-1284
-1285
-1285
-1286
-1285
-1285
-1284
-1285
-1285
-1284
-1284
-1284
-1283
-1282
-1281
-1281
-1280
-1280
-1280
-1280
-1279
-1278
-1277
-1277
-1275
-1274
-1274
-1273
-1273
-1272
-1272
-1271
-1269
-1268
-1266
-1265
-1265
-1264
-1263
-1262
-1261
-1259
-1258
-1257
-1255
-1253
-1252
-1251
-1250
-1249
-1248
-1246
-1244
-1242
-1240
-1237
-1235
-1234
-1232
-1230
-1229
-1226
-1223
-1221
-1219
-1216
-1213
-1211
-1209
-1206
-1202
-1199
-1195
-1193
-1190
-1186
-1183
-1179
-1177
-1174
-1171
-1169
-1166
-1162
-1159
-1157
-1154
-1152
-1150
-1149
-1148
-1146
-1144
-1142
-1140
-1139
-1139
-1138
-1138
-1138
-1138
-1140
-1140
-1142
-1145
-1147
-1151
-1157
-1161
-1166
-1171
-1177
-1183
-1188
-1193
-1199
-1205
-1212
-1219
-1225
-1230
-1235
-1241
-1245
-1248
-1252
-1257
-1261
-1264
-1268
-1272
-1274
-1277
-1277
-1279
-1281
-1283
-1285
-1286
-1287
-1288
-1290
-1290
-1290
-1290
-1290
-1291
-1292
-1293
-1294
-1294
-1294
-1294
-1293
-1293
-1293
-1294
-1294
-1294
-1295
-1295
-1295
-1294
-1294
-1293
-1292
-1293
-1293
-1293
-1294
-1294
-1294
-1294
-1292
-1292
-1292
-1292
-1293
-1293
-1293
-1293
-1293
-1292
-1292
-1292
-1291
-1291
-1293
-1293
-1293
-1294
-1293
-1293
-1293
-1292
-1293
-1293
-1294
-1294
-1295
-1295
-1295
-1295
-1295
-1294
-1295
-1296
-1297
-1297
-1298
-1298
-1298
-1298
-1297
-1296
-1297
-1298
-1300
-1300
-1300
-1301
-1301
-1301
-1301
-1301
-1301
-1302
-1302
-1302
-1303
-1304
-1304
-1304
-1303
-1303
-1305
-1304
-1304
-1305
-1306
-1306
-1306
-1306
-1305
-1305
-1305
-1306
-1306
-1306
-1307
-1307
-1307
-1307
-1307
-1306
-1306
-1307
-1308
-1309
-1309
-1309
-1309
-1308
-1308
-1308
-1307
-1308
-1308
-1310
-1310
-1310
-1310
-1309
-1309
-1309
-1309
-1309
-1309
-1310
-1311
-1311
-1311
-1310
-1309
-1310
-1310
-1310
-1310
-1311
-1312
-1312
-1311
-1311
-1310
-1310
-1311
-1311
-1312
-1312
-1312
-1312
-1311
-1311
-1311
-1310
-1311
-1312
-1311
-1312
-1313
-1313
-1314
-1312
-1311
-1310
-1311
-1312
-1313
-1313
-1313
-1314
-1313
-1312
-1312
-1312
-1311
-1312
-1313
-1312
-1313
-1314
-1313
-1312
-1312
-1312
-1312
-1313
-1312
-1313
-1313
-1313
-1314
-1313
-1312
-1312
-1312
-1313
-1313
-1313
-1315
-1314
-1314
-1313
-1312
-1311
-1310
-1310
-1311
-1310
-1310
-1309
-1308
-1306
-1303
-1302
-1301
-1302
-1302
-1303
-1303
-1303
-1303
-1301
-1297
-1294
-1291
-1290
-1289
-1291
-1294
-1296
-1298
-1299
-1301
-1303
-1305
-1306
-1307
-1308
-1308
-1309
-1310
-1312
-1313
-1314
-1316
-1318
-1318
-1319
-1319
-1320
-1320
-1320
-1319
-1320
-1320
-1320
-1321
-1322
-1322
-1322
-1322
-1322
-1320
-1321
-1321
-1322
-1322
-1323
-1323
-1324
-1324
-1325
-1327
-1331
-1338
-1346
-1354
-1361
-1367
-1370
-1364
-1351
-1332
-1310
-1278
-1232
-1174
-1111
-1047
-987
-929
-870
-815
-772
-733
-702
-682
-684
-716
-764
-820
-893
-980
-1068
-1154
-1233
-1300
-1333
-1343
-1347
-1345
-1338
-1330
-1324
-1320
-1312
-1306
-1301
-1297
-1295
-1294
-1293
-1293
-1293
-1294
-1295
-1295
-1295
-1295
-1295
-1295
-1293
-1293
-1292
-1292
-1292
-1293
-1292
-1291
-1291
-1290
-1289
-1288
-1287
-1287
-1287
-1286
-1285
-1284
-1284
-1282
-1280
-1279
-1278
-1279
-1278
-1276
-1276
-1275
-1274
-1272
-1271
-1269
-1268
-1267
-1266
-1265
-1263
-1262
-1261
-1259
-1258
-1256
-1254
-1253
-1251
-1250
-1248
-1247
-1245
-1242
-1240
-1237
-1235
-1233
-1231
-1229
-1227
-1224
-1221
-1218
-1215
-1212
-1209
-1206
-1203
-1200
-1197
-1194
-1190
-1186
-1182
-1179
-1177
-1174
-1172
-1170
-1168
-1165
-1163
-1160
-1157
-1155
-1153
-1152
-1150
-1149
-1147
-1147
-1145
-1145
-1144
-1144
-1145
-1146
-1148
-1151
-1154
-1157
-1160
-1165
-1168
-1173
-1178
-1184
-1191
-1197
-1203
-1209
-1214
-1221
-1226
-1231
-1237
-1243
-1248
-1252
-1258
-1261
-1265
-1268
-1271
-1274
-1277
-1280
-1282
-1285
-1287
-1289
-1290
-1291
-1291
-1293
-1294
-1295
-1296
-1297
-1298
-1299
-1299
-1298
-1298
-1298
-1298
-1299
-1299
-1299
-1299
-1300
-1300
-1299
-1298
-1298
-1298
-1299
-1299
-1299
-1299
-1299
-1298
-1298
-1297
-1297
-1297
-1298
-1298
-1298
-1298
-1298
-1298
-1297
-1296
-1296
-1296
-1296
-1296
-1297
-1297
-1296
-1296
-1296
-1295
-1295
-1295
-1296
-1296
-1297
-1298
-1298
-1297
-1297
-1297
-1297
-1297
-1297
-1298
-1298
-1299
-1299
-1299
-1299
-1299
-1300
-1299
-1300
-1300
-1302
-1302
-1302
-1301
-1301
-1301
-1301
-1302
-1302
-1303
-1304
-1304
-1305
-1305
-1304
-1304
-1305
-1305
-1305
-1305
-1305
-1305
-1305
-1305
-1305
-1305
-1305
-1306
-1306
-1306
-1307
-1308
-1307
-1307
-1306
-1306
-1307
-1307
-1307
-1307
-1308
-1308
-1308
-1308
-1307
-1307
-1307
-1308
-1308
-1307
-1308
-1308
-1309
-1308
-1307
-1307
-1307
-1308
-1308
-1308
-1309
-1309
-1309
-1308
-1307
-1307
-1308
-1308
-1309
-1310
-1310
-1309
-1309
-1309
-1308
-1308
-1308
-1308
-1309
-1309
-1309
-1309
-1309
-1308
-1309
-1308
-1308
-1308
-1309
-1310
-1310
-1310
-1309
-1309
-1309
-1309
-1309
-1310
-1310
-1310
-1310
-1310
-1309
-1309
-1309
-1308
-1308
-1309
-1309
-1309
-1310
-1310
-1310
-1310
-1309
-1308
-1308
-1309
-1310
-1310
-1310
-1311
-1310
-1309
-1307
-1307
-1308
-1308
-1307
-1307
-1307
-1306
-1305
-1304
-1303
-1302
-1299
-1299
-1299
-1299
-1299
-1298
-1298
-1299
-1298
-1296
-1293
-1290
-1287
-1286
-1284
-1284
-1286
-1290
-1292
-1294
-1295
-1297
-1299
-1300
-1300
-1302
-1303
-1303
-1303
-1305
-1307
-1308
-1310
-1311
-1312
-1312
-1312
-1313
-1313
-1313
-1313
-1314
-1314
-1314
-1315
-1315
-1315
-1314
-1313
-1313
-1313
-1314
-1315
-1315
-1316
-1315
-1316
-1315
-1314
-1316
-1319
-1323
-1329
-1336
-1343
-1349
-1354
-1355
-1351
-1339
-1320
-1298
-1266
-1222
-1166
-1105
-1043
-985
-930
-875
-827
-789
-751
-722
-701
-694
-718
-762
-816
-885
-966
-1050
-1139
-1217
-1287
-1320
-1330
-1336
-1342
-1342
-1336
-1330
-1323
-1317
-1308
-1301
-1296
-1292
-1288
-1287
-1287
-1287
-1287
-1288
-1287
-1288
-1288
-1287
-1286
-1286
-1285
-1285
-1286
-1285
-1285
-1284
-1284
-1283
-1282
-1281
-1280
-1280
-1279
-1279
-1278
-1277
-1276
-1275
-1274
-1273
-1272
-1272
-1271
-1270
-1269
-1268
-1267
-1265
-1263
-1262
-1261
-1261
-1261
-1260
-1258
-1257
-1256
-1254
-1252
-1250
-1248
-1247
-1246
-1245
-1243
-1241
-1239
-1237
-1235
-1233
-1231
-1231
-1229
-1226
-1224
-1221
-1219
-1215
-1212
-1210
-1207
-1205
-1202
-1199
-1196
-1193
-1190
-1186
-1183
-1180
-1177
-1176
-1173
-1170
-1168
-1165
-1163
-1160
-1158
-1156
-1155
-1153
-1152
-1152
-1150
-1149
-1147
-1146
-1145
-1145
-1145
-1147
-1148
-1150
-1153
-1155
-1157
-1161
-1165
-1169
-1175
-1180
-1186
-1192
-1197
-1202
-1208
-1213
-1218
-1223
-1229
-1234
-1240
-1245
-1250
-1254
-1257
-1260
-1263
-1266
-1269
-1272
-1275
-1277
-1279
-1281
-1282
-1283
-1284
-1286
-1287
-1289
-1290
-1291
-1291
-1292
-1292
-1292
-1292
-1292
-1293
-1294
-1294
-1294
-1294
-1294
-1294
-1294
-1294
-1294
-1294
-1293
-1293
-1293
-1294
-1293
-1293
-1292
-1292
-1292
-1292
-1292
-1293
-1293
-1293
-1292
-1291
-1290
-1290
-1290
-1290
-1290
-1291
-1291
-1291
-1291
-1290
-1290
-1290
-1289
-1289
-1290
-1291
-1291
-1291
-1292
-1291
-1290
-1290
-1291
-1291
-1292
-1293
-1292
-1293
-1294
-1294
-1293
-1293
-1294
-1295
-1295
-1295
-1296
-1297
-1296
-1296
-1296
-1296
-1297
-1298
-1298
-1298
-1299
-1300
-1300
-1299
-1299
-1299
-1299
-1300
-1301
-1302
-1302
-1302
-1302
-1302
-1302
-1301
-1302
-1304
-1304
-1304
-1304
-1305
-1304
-1304
-1304
-1304
-1305
-1305
-1306
-1306
-1306
-1306
-1306
-1305
-1306
-1306
-1307
-1307
-1307
-1307
-1307
-1307
-1307
-1307
-1307
-1306
-1306
-1307
-1308
-1308
-1308
-1309
-1309
-1308
-1307
-1307
-1307
-1308
-1309
-1308
-1309
-1309
-1309
-1308
-1308
-1308
-1308
-1309
-1309
-1310
-1310
-1310
-1309
-1309
-1308
-1309
-1308
-1309
-1310
-1310
-1310
-1309
-1309
-1309
-1309
-1310
-1310
-1311
-1310
-1310
-1311
-1311
-1310
-1310
-1309
-1309
-1309
-1309
-1310
-1309
-1308
-1308
-1307
-1306
-1306
-1305
-1304
-1302
-1300
-1300
-1300
-1301
-1300
-1300
-1299
-1300
-1299
-1297
-1295
-1291
-1288
-1287
-1287
-1288
-1290
-1293
-1296
-1297
-1300
-1301
-1303
-1303
-1304
-1304
-1304
-1306
-1308
-1310
-1312
-1313
-1314
-1315
-1315
-1316
-1315
-1316
-1317
-1318
-1318
-1319
-1319
-1319
-1319
-1318
-1318
-1318
-1319
-1320
-1320
-1320
-1320
-1320
-1320
-1319
-1318
-1319
-1321
-1323
-1326
-1330
-1338
-1346
-1352
-1358
-1362
-1363
-1355
-1341
-1323
-1298
-1259
-1207
-1147
-1082
-1020
-962
-907
-852
-807
-768
-731
-704
-686
-693
-727
-776
-836
-914
-998
-1087
-1173
-1251
-1308
-1328
-1336
-1343
-1345
-1341
-1335
-1328
-1323
-1315
-1307
-1301
-1297
-1293
-1293
-1293
-1292
-1293
-1294
-1294
-1294
-1294
-1292
-1292
-1293
-1292
-1293
-1292
-1292
-1290
-1290
-1289
-1288
-1287
-1286
-1287
-1287
-1286
-1285
-1285
-1283
-1281
-1280
-1280
-1280
-1279
-1279
-1278
-1278
-1277
-1275
-1273
-1272
-1272
-1271
-1270
-1269
-1268
-1267
-1266
-1263
-1261
-1260
-1259
-1259
-1258
-1256
-1255
-1253
-1250
-1248
-1246
-1244
-1243
-1241
-1240
-1239
-1237
-1234
-1232
-1228
-1225
-1222
-1219
-1217
-1216
-1213
-1210
-1206
-1203
-1200
-1196
-1192
-1190
-1187
-1185
-1182
-1180
-1177
-1174
-1171
-1168
-1165
-1163
-1161
-1160
-1159
-1157
-1156
-1155
-1153
-1151
-1150
-1151
-1150
-1151
-1152
-1154
-1155
-1157
-1159
-1162
-1166
-1171
-1176
-1181
-1186
-1192
-1198
-1204
-1209
-1214
-1219
-1225
-1232
-1238
-1244
-1248
-1253
-1257
-1261
-1265
-1268
-1272
-1276
-1280
-1283
-1285
-1287
-1289
-1291
-1292
-1293
-1294
-1296
-1298
-1299
-1300
-1301
-1300
-1300
-1300
-1301
-1302
-1303
-1304
-1304
-1305
-1305
-1304
-1304
-1303
-1303
-1303
-1304
-1305
-1304
-1304
-1305
-1304
-1303
-1302
-1302
-1302
-1302
-1303
-1303
-1302
-1302
-1301
-1301
-1301
-1300
-1300
-1301
-1302
-1301
-1300
-1300
-1300
-1299
-1299
-1299
-1300
-1301
-1300
-1301
-1301
-1301
-1301
-1300
-1299
-1300
-1301
-1301
-1302
-1301
-1302
-1303
-1302
-1302
-1302
-1302
-1303
-1303
-1304
-1305
-1306
-1306
-1305
-1305
-1305
-1304
-1305
-1306
-1307
-1308
-1308
-1307
-1307
-1308
-1307
-1308
-1309
-1308
-1310
-1310
-1310
-1310
-1310
-1310
-1310
-1310
-1311
-1310
-1311
-1313
-1313
-1313
-1313
-1312
-1312
-1312
-1313
-1314
-1314
-1314
-1315
-1314
-1314
-1315
-1314
-1314
-1315
-1315
-1315
-1316
-1316
-1315
-1315
-1314
-1315
-1315
-1316
-1316
-1317
-1317
-1316
-1316
-1316
-1315
-1315
-1315
-1315
-1316
-1317
-1317
-1318
-1318
-1318
-1317
-1316
-1316
-1316
-1316
-1318
-1318
-1318
-1319
-1318
-1317
-1316
-1317
-1317
-1318
-1319
-1318
-1318
-1318
-1317
-1316
-1317
-1317
-1318
-1318
-1319
-1319
-1319
-1318
-1318
-1318
-1318
-1319
-1318
-1319
-1319
-1319
-1319
-1318
-1318
-1318
-1318
-1318
-1319
-1320
-1319
-1319
-1320
-1319
-1319
-1318
-1318
-1318
-1318
-1319
-1318
-1318
-1318
-1317
-1316
-1315
-1313
-1314
-1313
-1312
-1311
-1309
-1309
-1309
-1308
-1308
-1307
-1306
-1307
-1306
-1305
-1302
-1299
-1296
-1295
-1294
-1296
-1298
-1302
-1303
-1305
-1307
-1309
-1309
-1310
-1311
-1312
-1312
-1314
-1317
-1319
-1320
-1322
-1323
-1323
-1323
-1323
-1324
-1325
-1325
-1326
-1327
-1326
-1326
-1325
-1326
-1327
-1327
-1328
-1327
-1327
-1327
-1327
-1328
-1327
-1327
-1327
-1327
-1328
-1330
-1333
-1337
-1342
-1349
-1357
-1364
-1370
-1375
-1375
-1366
-1349
-1327
-1301
-1259
-1205
-1142
-1077
-1015
-957
-899
-841
-791
-750
-713
-687
-675
-692
-736
-789
-855
-936
-1026
-1114
-1197
-1272
-1323
-1341
-1347
-1350
-1345
-1340
-1335
-1329
-1321
-1312
-1306
-1303
-1299
-1299
-1299
-1299
-1299
-1299
-1300
-1300
-1300
-1300
-1299
-1300
-1300
-1299
-1300
-1299
-1298
-1297
-1296
-1294
-1294
-1296
-1296
-1295
-1294
-1293
-1292
-1291
-1290
-1289
-1288
-1288
-1287
-1287
-1285
-1284
-1283
-1282
-1281
-1279
-1279
-1278
-1278
-1277
-1275
-1273
-1272
-1270
-1268
-1267
-1266
-1266
-1265
-1263
-1261
-1260
-1257
-1255
-1253
-1251
-1250
-1248
-1246
-1245
-1242
-1240
-1237
-1233
-1230
-1228
-1226
-1223
-1222
-1219
-1216
-1213
-1209
-1205
-1201
-1198
-1195
-1192
-1189
-1186
-1183
-1179
-1177
-1174
-1171
-1169
-1167
-1165
-1163
-1161
-1159
-1157
-1156
-1153
-1150
-1149
-1149
-1150
-1150
-1149
-1150
-1152
-1153
-1154
-1157
-1161
-1164
-1169
-1174
-1179
-1185
-1190
-1196
-1201
-1207
-1213
-1219
-1226
-1231
-1236
-1243
-1249
-1253
-1257
-1261
-1266
-1269
-1273
-1277
-1280
-1283
-1285
-1288
-1289
-1291
-1293
-1295
-1297
-1298
-1299
-1300
-1301
-1301
-1301
-1301
-1302
-1303
-1304
-1304
-1305
-1305
-1304
-1303
-1303
-1303
-1304
-1305
-1306
-1304
-1304
-1305
-1305
-1304
-1303
-1302
-1302
-1303
-1303
-1302
-1302
-1302
-1302
-1301
-1301
-1301
-1300
-1301
-1301
-1300
-1301
-1301
-1300
-1299
-1299
-1299
-1299
-1299
-1299
-1300
-1300
-1300
-1300
-1299
-1299
-1299
-1299
-1300
-1301
-1301
-1301
-1301
-1301
-1301
-1300
-1301
-1302
-1302
-1302
-1302
-1303
-1303
-1303
-1302
-1302
-1302
-1303
-1303
-1304
-1304
-1304
-1305
-1305
-1305
-1305
-1304
-1305
-1305
-1306
-1307
-1307
-1307
-1307
-1306
-1307
-1307
-1307
-1308
-1309
-1310
-1309
-1309
-1308
-1308
-1308
-1308
-1308
-1308
-1309
-1309
-1309
-1310
-1309
-1308
-1309
-1309
-1309
-1310
-1310
-1311
-1311
-1311
-1311
-1311
-1310
-1310
-1311
-1311
-1311
-1311
-1311
-1312
-1311
-1310
-1309
-1310
-1311
-1311
-1311
-1312
-1312
-1311
-1311
-1310
-1310
-1310
-1311
-1311
-1311
-1311
-1312
-1311
-1311
-1311
-1310
-1310
-1311
-1311
-1312
-1312
-1312
-1312
-1312
-1311
-1310
-1311
-1311
-1311
-1312
-1312
-1311
-1311
-1311
-1310
-1311
-1311
-1311
-1311
-1312
-1311
-1312
-1311
-1311
-1310
-1310
-1310
-1311
-1312
-1312
-1312
-1312
-1312
-1312
-1310
-1310
-1311
-1311
-1312
-1312
-1312
-1312
-1312
-1312
-1310
-1310
-1310
-1311
-1312
-1311
-1311
-1311
-1311
-1311
-1309
-1309
-1309
-1311
-1311
-1309
-1309
-1309
-1308
-1306
-1305
-1305
-1303
-1302
-1301
-1300
-1300
-1300
-1301
-1299
-1299
-1298
-1297
-1296
-1293
-1290
-1287
-1286
-1284
-1286
-1288
-1290
-1293
-1295
-1297
-1298
-1299
-1300
-1302
-1302
-1301
-1302
-1303
-1306
-1308
-1310
-1312
-1312
-1312
-1312
-1312
-1313
-1314
-1314
-1315
-1315
-1316
-1315
-1315
-1315
-1314
-1315
-1315
-1315
-1315
-1315
-1314
-1314
-1315
-1315
-1314
-1314
-1316
-1318
-1320
-1327
-1333
-1340
-1347
-1352
-1356
-1357
-1350
-1337
-1317
-1292
-1256
-1205
-1146
-1084
-1022
-965
-911
-858
-812
-772
-736
-709
-689
-692
-728
-777
-836
-910
-993
-1080
-1166
-1243
-1302
-1324
-1332
-1339
-1343
-1340
-1333
-1327
-1320
-1312
-1303
-1296
-1292
-1288
-1286
-1286
-1287
-1288
-1288
-1289
-1288
-1287
-1286
-1285
-1285
-1285
-1286
-1285
-1285
-1284
-1284
-1283
-1282
-1282
-1281
-1281
-1280
-1280
-1280
-1278
-1277
-1276
-1274
-1273
-1272
-1271
-1272
-1270
-1270
-1269
-1267
-1266
-1265
-1264
-1262
-1262
-1260
-1260
-1259
-1257
-1256
-1255
-1253
-1251
-1249
-1249
-1248
-1246
-1244
-1242
-1241
-1239
-1237
-1235
-1233
-1232
-1230
-1228
-1225
-1224
-1221
-1218
-1215
-1213
-1210
-1208
-1205
-1203
-1200
-1197
-1193
-1189
-1185
-1182
-1180
-1177
-1175
-1173
-1170
-1168
-1164
-1161
-1159
-1156
-1154
-1153
-1151
-1149
-1148
-1147
-1145
-1143
-1141
-1141
-1140
-1141
-1142
-1143
-1144
-1146
-1148
-1150
-1153
-1156
-1160
-1165
-1170
-1177
-1182
-1187
-1192
-1198
-1203
-1208
-1215
-1220
-1226
-1232
-1238
-1242
-1245
-1248
-1251
-1255
-1260
-1263
-1266
-1269
-1271
-1273
-1275
-1277
-1278
-1279
-1282
-1283
-1285
-1286
-1286
-1286
-1287
-1287
-1287
-1288
-1289
-1289
-1291
-1291
-1292
-1292
-1291
-1290
-1290
-1290
-1289
-1290
-1290
-1290
-1291
-1290
-1289
-1288
-1288
-1288
-1289
-1289
-1289
-1289
-1289
-1289
-1289
-1288
-1287
-1287
-1287
-1287
-1287
-1288
-1288
-1287
-1287
-1286
-1286
-1286
-1287
-1287
-1287
-1288
-1288
-1287
-1287
-1286
-1286
-1286
-1288
-1288
-1288
-1289
-1289
-1289
-1288
-1289
-1289
-1290
-1290
-1291
-1292
-1292
-1292
-1291
-1292
-1291
-1291
-1292
-1292
-1293
-1294
-1295
-1295
-1296
-1295
-1295
-1294
-1295
-1296
-1296
-1297
-1297
-1298
-1298
-1298
-1298
-1297
-1297
-1298
-1299
-1300
-1301
-1301
-1300
-1300
-1300
-1299
-1299
-1300
-1300
-1301
-1302
-1302
-1302
-1301
-1300
-1301
-1301
-1302
-1303
-1303
-1304
-1304
-1303
-1303
-1303
-1302
-1302
-1303
-1304
-1304
-1305
-1305
-1304
-1304
-1303
-1303
-1303
-1304
-1305
-1305
-1305
-1305
-1305
-1305
-1304
-1304
-1304
-1305
-1305
-1306
-1306
-1305
-1304
-1304
-1305
-1304
-1305
-1306
-1305
-1306
-1307
-1306
-1305
-1305
-1305
-1305
-1306
-1306
-1307
-1307
-1307
-1306
-1306
-1306
-1306
-1306
-1307
-1307
-1307
-1306
-1307
-1306
-1305
-1305
-1304
-1303
-1303
-1303
-1303
-1302
-1302
-1299
-1297
-1296
-1295
-1295
-1297
-1296
-1296
-1297
-1296
-1295
-1291
-1287
-1284
-1282
-1281
-1283
-1285
-1288
-1290
-1292
-1295
-1295
-1297
-1298
-1299
-1301
-1301
-1303
-1303
-1305
-1307
-1308
-1309
-1310
-1311
-1312
-1313
-1314
-1314
-1314
-1314
-1313
-1313
-1313
-1314
-1315
-1315
-1316
-1316
-1316
-1315
-1314
-1315
-1315
-1315
-1316
-1317
-1317
-1317
-1319
-1321
-1323
-1328
-1335
-1343
-1350
-1356
-1360
-1358
-1348
-1332
-1310
-1279
-1238
-1184
-1124
-1062
-1003
-947
-891
-839
-796
-758
-725
-701
-687
-701
-738
-790
-852
-932
-1014
-1103
-1186
-1261
-1308
-1324
-1331
-1339
-1342
-1336
-1329
-1324
-1318
-1311
-1304
-1299
-1295
-1292
-1290
-1289
-1288
-1289
-1288
-1289
-1290
-1291
-1290
-1289
-1290
-1289
-1288
-1287
-1287
-1285
-1285
-1285
-1285
-1285
-1284
-1283
-1283
-1281
-1280
-1280
-1280
-1280
-1279
-1278
-1277
-1276
-1274
-1274
-1272
-1271
-1271
-1271
-1270
-1269
-1267
-1265
-1264
-1262
-1261
-1260
-1260
-1259
-1258
-1256
-1255
-1253
-1250
-1248
-1248
-1246
-1245
-1243
-1241
-1239
-1236
-1234
-1231
-1228
-1227
-1226
-1222
-1220
-1218
-1216
-1213
-1209
-1205
-1203
-1200
-1197
-1194
-1191
-1188
-1184
-1182
-1178
-1175
-1172
-1169
-1166
-1164
-1162
-1160
-1159
-1155
-1153
-1151
-1149
-1148
-1146
-1146
-1145
-1145
-1144
-1144
-1144
-1144
-1145
-1147
-1150
-1154
-1157
-1161
-1166
-1170
-1174
-1179
-1185
-1190
-1197
-1203
-1209
-1215
-1221
-1226
-1231
-1236
-1241
-1245
-1250
-1255
-1259
-1263
-1266
-1269
-1271
-1274
-1276
-1278
-1280
-1283
-1285
-1286
-1287
-1287
-1288
-1288
-1289
-1291
-1292
-1293
-1294
-1294
-1294
-1294
-1295
-1295
-1295
-1294
-1295
-1296
-1295
-1295
-1295
-1295
-1295
-1295
-1294
-1294
-1294
-1295
-1295
-1295
-1294
-1294
-1294
-1293
-1293
-1292
-1293
-1293
-1293
-1293
-1292
-1291
-1291
-1291
-1291
-1291
-1291
-1291
-1292
-1291
-1291
-1291
-1290
-1290
-1290
-1291
-1292
-1291
-1291
-1292
-1292
-1292
-1291
-1292
-1291
-1292
-1292
-1293
-1294
-1294
-1295
-1295
-1295
-1294
-1294
-1295
-1296
-1297
-1297
-1297
-1298
-1298
-1298
-1298
-1298
-1299
-1300
-1300
-1300
-1301
-1301
-1301
-1301
-1300
-1301
-1301
-1302
-1303
-1303
-1304
-1304
-1304
-1302
-1303
-1304
-1304
-1305
-1305
-1306
-1306
-1305
-1306
-1305
-1304
-1305
-1305
-1306
-1308
-1307
-1308
-1308
-1307
-1305
-1305
-1306
-1308
-1309
-1308
-1308
-1308
-1309
-1308
-1308
-1308
-1308
-1308
-1309
-1309
-1310
-1310
-1309
-1309
-1309
-1308
-1308
-1309
-1310
-1309
-1310
-1310
-1310
-1310
-1309
-1309
-1309
-1310
-1311
-1311
-1312
-1311
-1310
-1310
-1309
-1309
-1309
-1309
-1310
-1310
-1312
-1312
-1311
-1311
-1309
-1309
-1309
-1310
-1310
-1310
-1312
-1312
-1311
-1310
-1310
-1310
-1309
-1310
-1311
-1312
-1311
-1312
-1311
-1310
-1310
-1311
-1311
-1312
-1312
-1312
-1312
-1312
-1312
-1311
-1311
-1311
-1311
-1311
-1311
-1311
-1312
-1313
-1312
-1312
-1311
-1311
-1311
-1312
-1312
-1312
-1311
-1311
-1310
-1308
-1307
-1307
-1307
-1307
-1307
-1306
-1305
-1302
-1301
-1299
-1298
-1300
-1300
-1300
-1300
-1301
-1300
-1297
-1293
-1290
-1289
-1287
-1288
-1291
-1295
-1297
-1299
-1301
-1302
-1303
-1303
-1304
-1305
-1306
-1307
-1308
-1310
-1313
-1314
-1315
-1316
-1317
-1317
-1317
-1318
-1319
-1319
-1319
-1319
-1319
-1319
-1319
-1320
-1321
-1320
-1322
-1321
-1321
-1321
-1320
-1320
-1320
-1321
-1321
-1321
-1322
-1326
-1329
-1332
-1339
-1347
-1355
-1361
-1368
-1370
-1364
-1350
-1330
-1307
-1272
-1221
-1162
-1098
-1034
-973
-914
-854
-798
-755
-716
-686
-668
-676
-711
-760
-818
-894
-983
-1069
-1152
-1230
-1297
-1330
-1340
-1342
-1338
-1331
-1325
-1320
-1314
-1306
-1299
-1296
-1293
-1292
-1292
-1291
-1292
-1293
-1293
-1293
-1293
-1294
-1294
-1294
-1294
-1294
-1293
-1292
-1291
-1290
-1290
-1289
-1289
-1289
-1289
-1288
-1286
-1285
-1284
-1283
-1284
-1283
-1282
-1282
-1281
-1280
-1279
-1278
-1277
-1275
-1274
-1274
-1274
-1272
-1271
-1270
-1269
-1266
-1265
-1264
-1262
-1262
-1261
-1259
-1258
-1256
-1255
-1253
-1251
-1249
-1247
-1245
-1244
-1243
-1241
-1238
-1235
-1233
-1231
-1228
-1225
-1223
-1221
-1219
-1216
-1212
-1210
-1206
-1202
-1200
-1196
-1193
-1190
-1187
-1184
-1181
-1177
-1173
-1169
-1166
-1164
-1161
-1159
-1157
-1155
-1153
-1151
-1148
-1146
-1144
-1143
-1142
-1140
-1140
-1140
-1140
-1139
-1139
-1140
-1142
-1144
-1147
-1151
-1155
-1160
-1165
-1170
-1175
-1180
-1185
-1191
-1199
-1206
-1212
-1218
-1224
-1230
-1234
-1239
-1245
-1250
-1255
-1260
-1264
-1268
-1271
-1274
-1277
-1279
-1281
-1283
-1285
-1287
-1290
-1291
-1292
-1293
-1293
-1293
-1294
-1295
-1296
-1297
-1297
-1298
-1298
-1298
-1298
-1298
-1298
-1298
-1298
-1299
-1299
-1300
-1300
-1299
-1298
-1298
-1298
-1298
-1298
-1298
-1298
-1298
-1298
-1298
-1297
-1296
-1296
-1297
-1297
-1297
-1298
-1298
-1298
-1297
-1296
-1296
-1295
-1294
-1295
-1296
-1297
-1297
-1297
-1296
-1295
-1295
-1296
-1296
-1296
-1297
-1297
-1297
-1297
-1297
-1296
-1296
-1296
-1297
-1297
-1298
-1299
-1299
-1300
-1299
-1299
-1298
-1298
-1299
-1299
-1300
-1301
-1301
-1301
-1302
-1301
-1301
-1301
-1302
-1302
-1303
-1303
-1303
-1304
-1304
-1303
-1303
-1304
-1304
-1305
-1305
-1305
-1306
-1306
-1306
-1306
-1305
-1305
-1306
-1306
-1306
-1306
-1307
-1307
-1307
-1307
-1307
-1307
-1307
-1307
-1308
-1308
-1309
-1309
-1308
-1308
-1308
-1307
-1308
-1309
-1309
-1309
-1309
-1310
-1309
-1308
-1308
-1308
-1308
-1309
-1309
-1309
-1309
-1309
-1309
-1308
-1308
-1308
-1309
-1309
-1310
-1311
-1310
-1310
-1309
-1308
-1308
-1308
-1308
-1309
-1310
-1310
-1310
-1309
-1309
-1309
-1309
-1308
-1309
-1310
-1310
-1310
-1310
-1310
-1310
-1309
-1309
-1309
-1309
-1309
-1310
-1310
-1310
-1310
-1310
-1309
-1308
-1309
-1310
-1310
-1311
-1311
-1310
-1310
-1310
-1309
-1308
-1308
-1309
-1310
-1310
-1310
-1311
-1311
-1310
-1310
-1309
-1308
-1309
-1310
-1310
-1310
-1310
-1309
-1308
-1306
-1306
-1306
-1305
-1306
-1306
-1305
-1305
-1303
-1301
-1298
-1297
-1296
-1297
-1298
-1298
-1298
-1297
-1297
-1296
-1292
-1288
-1285
-1283
-1282
-1284
-1287
-1288
-1290
-1292
-1294
-1295
-1296
-1298
-1299
-1300
-1301
-1302
-1303
-1304
-1306
-1307
-1308
-1310
-1311
-1312
-1312
-1312
-1313
-1313
-1313
-1313
-1314
-1314
-1314
-1313
-1314
-1314
-1314
-1313
-1313
-1313
-1313
-1313
-1314
-1315
-1315
-1315
-1315
-1316
-1318
-1322
-1328
-1336
-1345
-1352
-1357
-1360
-1356
-1345
-1326
-1304
-1274
-1229
-1172
-1110
-1046
-986
-928
-870
-815
-769
-728
-695
-672
-667
-694
-739
-794
-864
-947
-1035
-1125
-1208
-1280
-1319
-1330
-1336
-1339
-1332
-1325
-1318
-1313
-1306
-1298
-1294
-1290
-1287
-1285
-1283
-1283
-1283
-1283
-1284
-1284
-1285
-1285
-1285
-1284
-1284
-1283
-1282
-1282
-1282
-1282
-1281
-1280
-1280
-1279
-1278
-1277
-1276
-1275
-1275
-1275
-1274
-1273
-1273
-1271
-1270
-1268
-1268
-1268
-1267
-1265
-1265
-1264
-1262
-1261
-1260
-1258
-1257
-1256
-1255
-1254
-1253
-1252
-1250
-1248
-1246
-1244
-1242
-1241
-1240
-1239
-1238
-1236
-1234
-1232
-1229
-1227
-1224
-1222
-1220
-1218
-1215
-1212
-1210
-1207
-1204
-1201
-1198
-1195
-1192
-1189
-1185
-1183
-1179
-1176
-1173
-1169
-1166
-1164
-1161
-1159
-1156
-1155
-1152
-1149
-1147
-1145
-1142
-1140
-1140
-1139
-1138
-1136
-1136
-1135
-1134
-1133
-1134
-1135
-1137
-1139
-1142
-1145
-1149
-1153
-1156
-1161
-1167
-1172
-1178
-1185
-1190
-1196
-1202
-1207
-1212
-1217
-1223
-1229
-1234
-1239
-1244
-1248
-1251
-1255
-1258
-1260
-1263
-1266
-1268
-1271
-1274
-1275
-1276
-1278
-1278
-1279
-1279
-1280
-1282
-1283
-1284
-1284
-1285
-1285
-1285
-1285
-1285
-1287
-1287
-1287
-1288
-1287
-1287
-1286
-1285
-1285
-1285
-1285
-1286
-1285
-1285
-1285
-1285
-1284
-1284
-1283
-1283
-1284
-1284
-1284
-1284
-1284
-1284
-1283
-1283
-1282
-1282
-1282
-1282
-1283
-1283
-1282
-1282
-1281
-1281
-1280
-1280
-1281
-1282
-1282
-1283
-1283
-1283
-1282
-1282
-1282
-1282
-1282
-1283
-1284
-1284
-1285
-1284
-1284
-1284
-1284
-1284
-1285
-1286
-1286
-1286
-1287
-1287
-1287
-1286
-1286
-1287
-1288
-1288
-1289
-1289
-1290
-1289
-1289
-1289
-1290
-1289
-1290
-1291
-1291
-1291
-1291
-1291
-1291
-1291
-1291
-1291
-1292
-1292
-1292
-1293
-1293
-1293
-1293
-1293
-1293
-1293
-1293
-1294
-1294
-1295
-1295
-1294
-1294
-1294
-1295
-1295
-1295
-1295
-1295
-1295
-1295
-1295
-1295
-1295
-1295
-1295
-1295
-1296
-1297
-1296
-1296
-1296
-1296
-1295
-1295
-1296
-1297
-1297
-1296
-1297
-1296
-1296
-1296
-1296
-1296
-1297
-1297
-1297
-1297
-1298
-1299
-1297
-1296
-1296
-1297
-1297
-1297
-1298
-1298
-1298
-1298
-1298
-1297
-1297
-1297
-1297
-1298
-1299
-1299
-1298
-1299
-1298
-1297
-1297
-1298
-1299
-1299
-1300
-1300
-1300
-1299
-1298
-1297
-1297
-1296
-1296
-1296
-1295
-1296
-1296
-1295
-1294
-1292
-1289
-1289
-1288
-1289
-1289
-1289
-1288
-1288
-1287
-1285
-1282
-1279
-1276
-1275
-1274
-1276
-1279
-1281
-1283
-1284
-1285
-1288
-1289
-1291
-1292
-1294
-1294
-1294
-1294
-1296
-1299
-1299
-1301
-1303
-1304
-1305
-1305
-1305
-1305
-1306
-1305
-1305
-1305
-1307
-1307
-1307
-1307
-1308
-1308
-1307
-1307
-1307
-1308
-1307
-1308
-1309
-1309
-1309
-1309
-1310
-1312
-1317
-1324
-1332
-1340
-1346
-1351
-1354
-1349
-1337
-1317
-1295
-1262
-1215
-1158
-1097
-1034
-975
-919
-862
-813
-771
-732
-702
-680
-675
-700
-744
-798
-868
-951
-1039
-1129
-1211
-1281
-1314
-1323
-1329
-1334
-1331
-1324
-1317
-1312
-1306
-1298
-1293
-1288
-1284
-1282
-1281
-1280
-1280
-1281
-1282
-1282
-1282
-1282
-1282
-1281
-1281
-1280
-1280
-1280
-1280
-1279
-1279
-1279
-1278
-1277
-1276
-1274
-1274
-1274
-1273
-1273
-1272
-1271
-1270
-1269
-1267
-1267
-1266
-1266
-1266
-1265
-1264
-1263
-1262
-1260
-1258
-1257
-1256
-1255
-1254
-1254
-1252
-1250
-1249
-1248
-1246
-1244
-1243
-1241
-1240
-1239
-1237
-1235
-1233
-1231
-1228
-1226
-1224
-1222
-1220
-1218
-1216
-1214
-1211
-1207
-1203
-1201
-1199
-1196
-1192
-1190
-1187
-1183
-1181
-1177
-1173
-1170
-1168
-1165
-1162
-1160
-1158
-1155
-1153
-1150
-1148
-1146
-1145
-1144
-1142
-1141
-1140
-1139
-1138
-1137
-1136
-1137
-1137
-1139
-1141
-1144
-1147
-1151
-1155
-1159
-1163
-1168
-1173
-1180
-1187
-1192
-1199
-1205
-1210
-1215
-1220
-1226
-1231
-1235
-1241
-1246
-1251
-1255
-1259
-1261
-1263
-1267
-1269
-1272
-1275
-1277
-1279
-1280
-1281
-1282
-1283
-1284
-1285
-1287
-1288
-1288
-1289
-1290
-1290
-1290
-1290
-1290
-1290
-1291
-1291
-1292
-1291
-1291
-1291
-1290
-1290
-1290
-1291
-1291
-1291
-1291
-1291
-1290
-1290
-1290
-1288
-1288
-1289
-1289
-1289
-1289
-1289
-1289
-1288
-1288
-1287
-1287
-1287
-1287
-1287
-1288
-1288
-1287
-1286
-1286
-1286
-1286
-1287
-1287
-1286
-1287
-1288
-1288
-1288
-1287
-1287
-1288
-1289
-1289
-1289
-1291
-1291
-1290
-1290
-1289
-1289
-1290
-1290
-1291
-1292
-1292
-1293
-1293
-1293
-1293
-1293
-1293
-1294
-1295
-1295
-1296
-1296
-1296
-1296
-1296
-1296
-1296
-1297
-1298
-1298
-1299
-1298
-1299
-1299
-1299
-1299
-1299
-1299
-1300
-1301
-1300
-1301
-1301
-1300
-1300
-1300
-1300
-1301
-1302
-1302
-1302
-1302
-1303
-1302
-1301
-1301
-1302
-1303
-1303
-1303
-1303
-1303
-1304
-1304
-1303
-1302
-1302
-1303
-1304
-1304
-1304
-1304
-1304
-1303
-1303
-1302
-1303
-1304
-1304
-1304
-1304
-1304
-1304
-1303
-1302
-1303
-1303
-1303
-1304
-1305
-1305
-1304
-1304
-1304
-1304
-1303
-1303
-1304
-1304
-1305
-1305
-1305
-1305
-1305
-1304
-1303
-1304
-1304
-1304
-1304
-1305
-1305
-1305
-1304
-1304
-1304
-1304
-1304
-1305
-1306
-1306
-1306
-1306
-1305
-1305
-1304
-1304
-1305
-1306
-1307
-1306
-1306
-1306
-1305
-1305
-1304
-1305
-1305
-1305
-1305
-1304
-1303
-1303
-1302
-1302
-1301
-1300
-1300
-1299
-1297
-1296
-1295
-1295
-1294
-1294
-1293
-1294
-1294
-1293
-1291
-1288
-1283
-1282
-1281
-1281
-1284
-1286
-1288
-1290
-1292
-1294
-1296
-1297
-1297
-1298
-1298
-1298
-1300
-1303
-1305
-1306
-1308
-1309
-1309
-1309
-1310
-1311
-1311
-1313
-1313
-1313
-1313
-1312
-1313
-1313
-1312
-1312
-1313
-1313
-1314
-1313
-1314
-1314
-1313
-1313
-1313
-1314
-1314
-1316
-1319
-1323
-1329
-1337
-1345
-1352
-1358
-1361
-1358
-1347
-1329
-1308
-1277
-1230
-1172
-1108
-1043
-982
-923
-864
-808
-762
-723
-690
-666
-662
-688
-735
-790
-862
-948
-1038
-1125
-1206
-1277
-1318
-1330
-1335
-1335
-1328
-1323
-1316
-1311
-1303
-1295
-1291
-1288
-1285
-1284
-1284
-1286
-1287
-1286
-1286
-1285
-1285
-1285
-1285
-1285
-1286
-1285
-1284
-1284
-1284
-1282
-1282
-1282
-1281
-1281
-1281
-1280
-1279
-1278
-1276
-1276
-1275
-1274
-1274
-1273
-1273
-1272
-1271
-1270
-1269
-1268
-1266
-1266
-1264
-1263
-1262
-1261
-1260
-1260
-1257
-1256
-1254
-1252
-1252
-1251
-1250
-1248
-1246
-1244
-1242
-1240
-1238
-1236
-1235
-1234
-1232
-1229
-1227
-1225
-1222
-1220
-1216
-1214
-1212
-1210
-1207
-1204
-1201
-1197
-1194
-1190
-1186
-1184
-1181
-1177
-1174
-1171
-1168
-1166
-1162
-1158
-1156
-1154
-1151
-1149
-1148
-1146
-1144
-1142
-1140
-1139
-1137
-1135
-1134
-1135
-1135
-1135
-1135
-1135
-1137
-1138
-1141
-1144
-1148
-1153
-1159
-1164
-1169
-1174
-1180
-1186
-1192
-1198
-1205
-1211
-1217
-1222
-1228
-1234
-1239
-1243
-1247
-1252
-1256
-1260
-1264
-1267
-1270
-1272
-1275
-1276
-1278
-1280
-1282
-1284
-1285
-1287
-1288
-1287
-1287
-1288
-1288
-1289
-1290
-1291
-1292
-1292
-1293
-1292
-1291
-1292
-1292
-1293
-1293
-1293
-1294
-1294
-1293
-1293
-1292
-1291
-1290
-1291
-1291
-1292
-1293
-1293
-1292
-1292
-1292
-1291
-1291
-1291
-1291
-1291
-1292
-1292
-1291
-1290
-1290
-1289
-1289
-1290
-1290
-1291
-1290
-1291
-1292
-1292
-1291
-1289
-1290
-1291
-1292
-1292
-1293
-1292
-1293
-1293
-1293
-1292
-1293
-1294
-1294
-1294
-1295
-1296
-1296
-1295
-1295
-1295
-1296
-1297
-1297
-1297
-1298
-1298
-1298
-1298
-1298
-1297
-1298
-1299
-1300
-1301
-1302
-1302
-1301
-1301
-1301
-1300
-1301
-1301
-1302
-1302
-1303
-1304
-1304
-1304
-1303
-1302
-1302
-1303
-1304
-1305
-1306
-1306
-1306
-1305
-1305
-1305
-1305
-1306
-1306
-1306
-1307
-1307
-1306
-1306
-1306
-1306
-1306
-1306
-1306
-1306
-1307
-1307
-1307
-1307
-1306
-1306
-1307
-1307
-1308
-1307
-1308
-1308
-1308
-1308
-1308
-1307
-1307
-1308
-1308
-1309
-1308
-1309
-1308
-1307
-1307
-1307
-1307
-1308
-1308
-1309
-1309
-1308
-1308
-1308
-1307
-1307
-1307
-1308
-1308
-1309
-1309
-1309
-1309
-1309
-1308
-1307
-1307
-1307
-1308
-1309
-1309
-1309
-1309
-1308
-1307
-1307
-1307
-1307
-1308
-1309
-1309
-1309
-1309
-1308
-1308
-1307
-1308
-1307
-1308
-1309
-1309
-1308
-1308
-1308
-1307
-1307
-1307
-1308
-1308
-1308
-1308
-1307
-1307
-1306
-1305
-1305
-1303
-1303
-1303
-1304
-1304
-1303
-1303
-1300
-1298
-1296
-1295
-1295
-1297
-1296
-1296
-1295
-1295
-1293
-1290
-1287
-1284
-1283
-1282
-1283
-1286
-1288
-1289
-1290
-1292
-1294
-1296
-1297
-1299
-1299
-1300
-1301
-1301
-1302
-1305
-1306
-1307
-1309
-1310
-1311
-1311
-1311
-1312
-1312
-1311
-1312
-1312
-1312
-1314
-1314
-1313
-1313
-1313
-1313
-1313
-1313
-1313
-1313
-1314
-1315
-1315
-1314
-1314
-1316
-1318
-1322
-1329
-1337
-1345
-1352
-1359
-1361
-1355
-1341
-1321
-1298
-1263
-1215
-1156
-1091
-1028
-968
-909
-851
-797
-755
-717
-687
-668
-673
-707
-756
-814
-890
-976
-1066
-1152
-1231
-1297
-1325
-1334
-1338
-1335
-1327
-1320
-1314
-1308
-1300
-1294
-1290
-1286
-1284
-1282
-1281
-1281
-1282
-1283
-1284
-1284
-1284
-1284
-1284
-1282
-1281
-1280
-1281
-1280
-1280
-1280
-1280
-1280
-1280
-1278
-1277
-1276
-1275
-1275
-1275
-1274
-1273
-1272
-1271
-1270
-1268
-1267
-1266
-1266
-1266
-1264
-1263
-1262
-1261
-1260
-1258
-1256
-1255
-1254
-1253
-1253
-1251
-1249
-1248
-1246
-1244
-1242
-1241
-1240
-1238
-1237
-1235
-1234
-1231
-1229
-1226
-1224
-1221
-1219
-1217
-1215
-1213
-1211
-1208
-1205
-1201
-1198
-1195
-1191
-1189
-1187
-1184
-1180
-1177
-1173
-1169
-1166
-1163
-1161
-1158
-1155
-1153
-1151
-1149
-1146
-1143
-1140
-1138
-1137
-1135
-1134
-1134
-1132
-1130
-1129
-1129
-1128
-1128
-1129
-1131
-1133
-1136
-1139
-1143
-1147
-1151
-1156
-1161
-1167
-1174
-1180
-1186
-1192
-1198
-1203
-1208
-1214
-1219
-1225
-1231
-1236
-1240
-1245
-1248
-1251
-1254
-1257
-1261
-1263
-1265
-1268
-1271
-1272
-1274
-1275
-1276
-1276
-1277
-1279
-1280
-1281
-1281
-1282
-1282
-1282
-1281
-1282
-1282
-1282
-1283
-1284
-1284
-1284
-1284
-1283
-1283
-1283
-1283
-1282
-1282
-1283
-1282
-1283
-1282
-1282
-1282
-1281
-1281
-1282
-1282
-1282
-1283
-1283
-1281
-1280
-1280
-1280
-1280
-1280
-1280
-1280
-1280
-1281
-1281
-1280
-1280
-1280
-1279
-1280
-1280
-1280
-1280
-1281
-1281
-1281
-1281
-1281
-1281
-1282
-1282
-1283
-1284
-1283
-1283
-1283
-1283
-1283
-1283
-1284
-1284
-1286
-1286
-1286
-1286
-1286
-1286
-1285
-1286
-1287
-1287
-1289
-1288
-1288
-1287
-1287
-1287
-1287
-1288
-1289
-1289
-1290
-1290
-1291
-1290
-1289
-1289
-1289
-1289
-1289
-1290
-1291
-1291
-1291
-1291
-1292
-1292
-1291
-1291
-1292
-1293
-1293
-1292
-1293
-1293
-1292
-1291
-1291
-1292
-1293
-1293
-1293
-1292
-1293
-1293
-1292
-1292
-1292
-1293
-1293
-1294
-1294
-1294
-1293
-1293
-1292
-1292
-1291
-1292
-1292
-1293
-1293
-1294
-1294
-1293
-1294
-1293
-1293
-1293
-1292
-1293
-1294
-1293
-1293
-1293
-1293
-1292
-1293
-1293
-1294
-1294
-1294
-1294
-1294
-1294
-1293
-1292
-1293
-1293
-1293
-1294
-1294
-1294
-1294
-1294
-1293
-1293
-1292
-1293
-1292
-1293
-1294
-1294
-1294
-1294
-1293
-1293
-1293
-1293
-1293
-1292
-1292
-1292
-1291
-1291
-1289
-1289
-1289
-1288
-1287
-1286
-1285
-1284
-1284
-1283
-1283
-1282
-1282
-1282
-1281
-1279
-1277
-1273
-1270
-1268
-1266
-1267
-1270
-1273
-1276
-1279
-1280
-1281
-1282
-1284
-1285
-1285
-1285
-1287
-1288
-1291
-1294
-1295
-1296
-1296
-1295
-1296
-1296
-1298
-1299
-1299
-1300
-1299
-1300
-1299
-1299
-1299
-1299
-1299
-1299
-1300
-1300
-1300
-1300
-1300
-1299
-1299
-1300
-1300
-1301
-1304
-1307
-1311
-1317
-1324
-1330
-1335
-1340
-1339
-1331
-1317
-1296
-1269
-1230
-1178
-1119
-1057
-996
-942
-889
-837
-797
-760
-725
-699
-680
-687
-720
-769
-830
-907
-990
-1077
-1162
-1237
-1289
-1308
-1315
-1324
-1330
-1328
-1322
-1314
-1308
-1299
-1290
-1284
-1279
-1277
-1275
-1273
-1273
-1273
-1273
-1273
-1272
-1272
-1271
-1272
-1272
-1272
-1271
-1270
-1271
-1270
-1269
-1268
-1268
-1268
-1268
-1267
-1267
-1266
-1264
-1263
-1262
-1261
-1260
-1260
-1260
-1259
-1258
-1258
-1256
-1255
-1254
-1252
-1252
-1251
-1250
-1249
-1249
-1247
-1245
-1243
-1241
-1240
-1239
-1238
-1237
-1236
-1235
-1233
-1231
-1229
-1228
-1226
-1224
-1222
-1220
-1219
-1216
-1215
-1213
-1209
-1207
-1204
-1202
-1200
-1198
-1195
-1193
-1190
-1186
-1182
-1179
-1177
-1174
-1171
-1169
-1166
-1163
-1160
-1157
-1154
-1151
-1149
-1147
-1145
-1144
-1142
-1140
-1139
-1137
-1135
-1134
-1133
-1132
-1132
-1132
-1131
-1131
-1132
-1133
-1135
-1137
-1140
-1143
-1146
-1151
-1156
-1161
-1166
-1171
-1176
-1181
-1187
-1194
-1200
-1206
-1212
-1217
-1222
-1226
-1231
-1235
-1239
-1243
-1247
-1251
-1254
-1257
-1259
-1261
-1263
-1265
-1266
-1268
-1270
-1272
-1274
-1274
-1275
-1276
-1276
-1276
-1277
-1277
-1278
-1279
-1280
-1280
-1279
-1279
-1279
-1279
-1279
-1280
-1279
-1280
-1280
-1280
-1280
-1280
-1279
-1278
-1278
-1278
-1278
-1279
-1280
-1279
-1279
-1278
-1278
-1277
-1277
-1277
-1277
-1277
-1278
-1278
-1278
-1277
-1277
-1276
-1276
-1277
-1277
-1277
-1277
-1278
-1278
-1277
-1278
-1278
-1277
-1278
-1279
-1279
-1279
-1279
-1280
-1280
-1280
-1280
-1280
-1281
-1282
-1282
-1283
-1284
-1283
-1283
-1283
-1284
-1284
-1284
-1285
-1286
-1287
-1287
-1287
-1286
-1286
-1287
-1287
-1287
-1289
-1289
-1289
-1290
-1291
-1291
-1290
-1290
-1290
-1291
-1292
-1292
-1292
-1293
-1293
-1292
-1292
-1292
-1293
-1293
-1293
-1294
-1295
-1295
-1295
-1295
-1295
-1294
-1295
-1295
-1295
-1296
-1296
-1297
-1296
-1295
-1295
-1295
-1296
-1297
-1297
-1297
-1298
-1297
-1297
-1297
-1296
-1297
-1297
-1298
-1299
-1299
-1299
-1299
-1298
-1298
-1298
-1298
-1299
-1299
-1299
-1299
-1299
-1299
-1300
-1300
-1299
-1299
-1299
-1300
-1300
-1301
-1301
-1300
-1301
-1300
-1300
-1300
-1300
-1300
-1300
-1301
-1301
-1300
-1301
-1301
-1300
-1300
-1300
-1301
-1302
-1302
-1302
-1301
-1301
-1300
-1299
-1298
-1298
-1298
-1297
-1297
-1297
-1297
-1296
-1293
-1290
-1290
-1289
-1289
-1290
-1291
-1290
-1290
-1289
-1288
-1284
-1281
-1278
-1277
-1276
-1277
-1280
-1281
-1284
-1286
-1286
-1288
-1291
-1292
-1294
-1295
-1295
-1296
-1297
-1298
-1300
-1302
-1304
-1306
-1307
-1308
-1308
-1308
-1308
-1308
-1308
-1308
-1308
-1309
-1309
-1310
-1311
-1310
-1310
-1310
-1310
-1310
-1310
-1310
-1311
-1311
-1312
-1312
-1312
-1314
-1317
-1322
-1329
-1338
-1347
-1353
-1358
-1359
-1351
-1336
-1316
-1291
-1254
-1202
-1142
-1076
-1012
-951
-891
-833
-782
-741
-704
-676
-659
-668
-705
-754
-816
-896
-985
-1075
-1162
-1241
-1302
-1325
-1332
-1334
-1331
-1325
-1318
-1312
-1306
-1299
-1293
-1289
-1286
-1283
-1282
-1282
-1283
-1283
-1284
-1284
-1284
-1284
-1285
-1285
-1284
-1283
-1282
-1282
-1282
-1282
-1282
-1281
-1280
-1279
-1279
-1278
-1277
-1276
-1275
-1276
-1276
-1275
-1274
-1273
-1271
-1270
-1270
-1269
-1267
-1266
-1266
-1266
-1265
-1264
-1261
-1259
-1258
-1257
-1257
-1255
-1255
-1254
-1252
-1251
-1248
-1246
-1245
-1244
-1243
-1241
-1239
-1238
-1235
-1233
-1232
-1229
-1226
-1225
-1223
-1221
-1219
-1216
-1213
-1211
-1207
-1204
-1200
-1198
-1196
-1192
-1189
-1186
-1183
-1180
-1176
-1173
-1169
-1166
-1164
-1161
-1159
-1156
-1154
-1152
-1150
-1146
-1145
-1143
-1142
-1141
-1140
-1138
-1137
-1136
-1135
-1135
-1136
-1137
-1139
-1141
-1143
-1146
-1150
-1154
-1158
-1163
-1168
-1172
-1178
-1185
-1192
-1198
-1204
-1209
-1215
-1220
-1226
-1232
-1238
-1242
-1247
-1252
-1256
-1260
-1263
-1266
-1268
-1271
-1274
-1276
-1279
-1282
-1283
-1284
-1285
-1286
-1287
-1288
-1289
-1290
-1291
-1291
-1292
-1292
-1292
-1292
-1292
-1293
-1294
-1293
-1293
-1294
-1294
-1294
-1293
-1293
-1293
-1293
-1292
-1294
-1294
-1294
-1293
-1293
-1293
-1292
-1291
-1291
-1292
-1293
-1293
-1292
-1292
-1292
-1292
-1290
-1290
-1291
-1291
-1291
-1291
-1292
-1293
-1292
-1291
-1291
-1291
-1291
-1293
-1292
-1293
-1293
-1293
-1293
-1293
-1293
-1293
-1293
-1294
-1294
-1295
-1296
-1296
-1295
-1295
-1295
-1295
-1296
-1297
-1297
-1298
-1298
-1298
-1298
-1298
-1298
-1298
-1299
-1299
-1300
-1301
-1301
-1301
-1301
-1301
-1301
-1301
-1302
-1302
-1303
-1303
-1304
-1304
-1304
-1303
-1302
-1303
-1303
-1304
-1304
-1304
-1305
-1305
-1305
-1304
-1304
-1304
-1306
-1306
-1306
-1306
-1307
-1307
-1306
-1305
-1305
-1306
-1306
-1306
-1306
-1307
-1308
-1307
-1307
-1306
-1307
-1306
-1307
-1308
-1308
-1309
-1308
-1308
-1308
-1307
-1306
-1306
-1307
-1307
-1308
-1308
-1308
-1308
-1307
-1307
-1308
-1307
-1308
-1309
-1308
-1308
-1309
-1308
-1307
-1307
-1307
-1308
-1309
-1308
-1309
-1309
-1309
-1308
-1309
-1307
-1307
-1307
-1309
-1308
-1309
-1309
-1309
-1309
-1308
-1308
-1308
-1308
-1308
-1308
-1309
-1309
-1309
-1310
-1309
-1308
-1308
-1308
-1309
-1309
-1309
-1308
-1308
-1307
-1306
-1305
-1305
-1304
-1304
-1304
-1303
-1301
-1299
-1298
-1297
-1296
-1297
-1296
-1296
-1297
-1297
-1296
-1293
-1289
-1285
-1284
-1283
-1284
-1287
-1290
-1292
-1293
-1295
-1297
-1298
-1299
-1299
-1300
-1301
-1303
-1305
-1307
-1308
-1309
-1310
-1311
-1311
-1312
-1313
-1314
-1314
-1315
-1315
-1315
-1314
-1314
-1314
-1315
-1315
-1316
-1316
-1316
-1316
-1316
-1315
