-918
-916
-914
-913
-911
-911
-913
-915
-917
-918
-917
-916
-912
-910
-909
-909
-909
-911
-914
-916
-917
-918
-915
-911
-908
-908
-910
-915
-917
-918
-917
-918
-917
-916
-915
-915
-917
-922
-927
-932
-934
-932
-930
-929
-931
-932
-935
-940
-945
-947
-947
-947
-946
-946
-946
-948
-950
-952
-956
-961
-962
-961
-958
-956
-954
-955
-957
-961
-965
-967
-966
-964
-959
-958
-957
-957
-962
-966
-969
-969
-967
-965
-963
-959
-958
-959
-962
-964
-967
-971
-969
-966
-964
-962
-960
-960
-964
-966
-967
-968
-969
-968
-967
-964
-962
-964
-966
-970
-971
-974
-975
-974
-972
-968
-967
-966
-968
-969
-972
-975
-975
-974
-971
-970
-970
-971
-973
-978
-979
-977
-974
-972
-972
-971
-968
-970
-975
-978
-978
-978
-977
-974
-971
-970
-967
-966
-972
-975
-979
-979
-978
-977
-974
-971
-970
-971
-973
-976
-978
-980
-980
-978
-973
-971
-971
-973
-975
-981
-981
-982
-980
-976
-974
-973
-972
-974
-976
-979
-982
-981
-978
-976
-974
-970
-966
-968
-968
-965
-965
-966
-966
-964
-960
-957
-957
-962
-968
-969
-969
-969
-965
-959
-955
-951
-952
-954
-954
-959
-963
-967
-967
-966
-965
-961
-959
-962
-968
-972
-974
-974
-975
-973
-968
-968
-971
-974
-976
-981
-984
-984
-984
-981
-978
-976
-975
-977
-979
-982
-985
-984
-983
-980
-976
-974
-976
-978
-980
-983
-986
-988
-985
-982
-976
-974
-977
-980
-980
-983
-984
-983
-981
-978
-977
-971
-957
-935
-906
-877
-844
-813
-788
-768
-760
-798
-851
-895
-935
-953
-950
-949
-953
-957
-968
-979
-991
-1003
-1014
-1023
-1033
-1035
-1033
-1027
-1021
-1019
-1015
-1009
-1004
-999
-996
-990
-982
-975
-971
-968
-968
-969
-974
-974
-974
-973
-969
-967
-962
-960
-963
-968
-966
-967
-968
-967
-965
-961
-959
-957
-958
-958
-961
-963
-962
-961
-960
-956
-953
-955
-955
-956
-959
-961
-963
-962
-958
-954
-951
-950
-947
-947
-948
-950
-952
-953
-952
-948
-945
-945
-948
-947
-947
-947
-947
-944
-941
-937
-934
-933
-934
-936
-936
-938
-937
-936
-932
-926
-923
-924
-925
-926
-927
-929
-930
-930
-927
-924
-920
-920
-922
-926
-928
-928
-926
-925
-922
-919
-918
-918
-918
-922
-925
-928
-928
-927
-927
-926
-924
-923
-926
-930
-936
-939
-937
-938
-939
-938
-939
-941
-943
-948
-952
-954
-955
-956
-953
-951
-952
-953
-955
-957
-960
-963
-963
-965
-961
-959
-960
-960
-960
-964
-966
-968
-968
-963
-961
-959
-957
-959
-961
-964
-970
-972
-971
-969
-966
-963
-964
-965
-964
-967
-971
-970
-969
-970
-968
-966
-965
-965
-967
-969
-972
-974
-974
-972
-967
-966
-965
-965
-967
-970
-973
-974
-977
-977
-972
-967
-965
-966
-968
-971
-975
-977
-976
-974
-972
-969
-967
-968
-970
-973
-976
-979
-977
-976
-974
-972
-969
-970
-975
-976
-978
-981
-980
-979
-976
-971
-970
-971
-974
-977
-979
-979
-979
-978
-975
-971
-970
-972
-974
-978
-979
-979
-978
-975
-971
-970
-970
-971
-974
-978
-979
-980
-979
-978
-976
-970
-969
-970
-971
-971
-968
-965
-963
-959
-958
-958
-957
-957
-961
-965
-966
-968
-967
-962
-954
-949
-949
-946
-950
-955
-959
-962
-961
-957
-957
-955
-955
-957
-963
-969
-973
-973
-972
-969
-966
-965
-966
-971
-976
-980
-980
-981
-980
-977
-973
-971
-971
-976
-979
-978
-978
-977
-976
-976
-977
-974
-975
-977
-979
-981
-980
-979
-978
-975
-973
-970
-969
-973
-974
-977
-979
-977
-976
-973
-970
-973
-972
-960
-938
-907
-875
-838
-800
-768
-743
-731
-769
-832
-883
-927
-947
-946
-948
-953
-960
-976
-991
-1008
-1023
-1028
-1032
-1035
-1034
-1029
-1024
-1020
-1013
-1006
-1000
-994
-989
-982
-977
-973
-967
-962
-961
-963
-965
-967
-969
-969
-965
-962
-958
-956
-957
-959
-960
-961
-961
-961
-958
-955
-953
-951
-952
-956
-958
-956
-956
-954
-952
-948
-947
-946
-946
-947
-947
-950
-951
-950
-947
-944
-941
-940
-940
-943
-946
-946
-945
-943
-942
-938
-935
-935
-935
-937
-939
-939
-938
-936
-932
-929
-926
-923
-925
-929
-928
-925
-925
-924
-918
-917
-916
-915
-914
-915
-916
-917
-916
-913
-911
-908
-905
-904
-905
-907
-909
-911
-912
-911
-908
-905
-903
-903
-904
-905
-907
-910
-913
-914
-912
-911
-912
-912
-917
-920
-922
-927
-929
-929
-928
-927
-927
-929
-932
-937
-942
-946
-948
-947
-945
-944
-942
-945
-948
-951
-954
-956
-958
-957
-954
-950
-949
-950
-952
-956
-959
-961
-961
-959
-957
-953
-950
-950
-953
-955
-957
-961
-962
-960
-956
-953
-952
-953
-957
-960
-963
-964
-963
-962
-957
-956
-956
-957
-959
-963
-965
-967
-965
-964
-963
-961
-958
-959
-962
-963
-966
-967
-967
-965
-962
-959
-959
-961
-965
-968
-969
-970
-969
-968
-967
-965
-964
-965
-966
-968
-971
-971
-969
-968
-966
-963
-961
-964
-967
-971
-973
-972
-971
-969
-966
-964
-964
-966
-968
-970
-972
-974
-973
-971
-968
-967
-967
-968
-970
-972
-975
-975
-975
-973
-970
-968
-966
-967
-967
-965
-964
-962
-958
-949
-946
-946
-947
-950
-952
-955
-959
-962
-961
-956
-952
-947
-943
-941
-941
-943
-946
-947
-948
-949
-949
-948
-948
-951
-954
-960
-965
-968
-967
-964
-963
-960
-961
-965
-970
-974
-977
-978
-976
-974
-971
-970
-971
-972
-975
-976
-978
-977
-976
-974
-972
-972
-971
-973
-976
-978
-980
-980
-978
-975
-973
-971
-972
-972
-974
-976
-977
-975
-973
-972
-970
-972
-976
-972
-957
-932
-902
-867
-830
-790
-762
-742
-745
-800
-858
-906
-942
-952
-946
-943
-948
-961
-979
-997
-1012
-1025
-1031
-1034
-1032
-1029
-1025
-1021
-1019
-1015
-1008
-1003
-997
-988
-981
-973
-968
-966
-966
-966
-968
-970
-971
-969
-965
-964
-963
-959
-956
-958
-963
-964
-963
-962
-961
-958
-958
-958
-955
-957
-959
-958
-958
-957
-956
-951
-947
-947
-948
-950
-952
-954
-954
-952
-949
-946
-945
-942
-943
-947
-948
-950
-951
-950
-947
-943
-939
-939
-939
-943
-944
-943
-942
-942
-935
-930
-927
-926
-927
-930
-932
-932
-934
-934
-930
-925
-921
-920
-922
-925
-926
-925
-925
-922
-918
-914
-912
-911
-913
-914
-917
-921
-921
-919
-914
-911
-910
-911
-911
-913
-917
-920
-921
-921
-916
-914
-913
-915
-919
-924
-928
-932
-934
-933
-931
-930
-930
-932
-935
-941
-946
-949
-952
-951
-947
-947
-947
-949
-951
-955
-959
-963
-962
-959
-955
-954
-953
-953
-957
-960
-963
-964
-965
-961
-958
-957
-956
-956
-957
-959
-962
-965
-964
-961
-957
-955
-954
-956
-960
-962
-963
-964
-964
-961
-958
-956
-955
-957
-961
-965
-966
-967
-967
-965
-961
-959
-959
-958
-961
-965
-969
-970
-971
-971
-968
-965
-963
-962
-963
-966
-970
-972
-971
-969
-964
-962
-962
-963
-966
-969
-971
-972
-971
-967
-965
-964
-964
-965
-968
-973
-974
-975
-973
-971
-966
-963
-963
-966
-970
-972
-973
-974
-974
-970
-969
-967
-966
-964
-965
-964
-962
-957
-956
-953
-950
-948
-948
-951
-957
-958
-957
-960
-956
-949
-945
-941
-937
-936
-935
-938
-944
-947
-947
-946
-946
-948
-951
-956
-961
-967
-968
-967
-967
-964
-963
-965
-968
-971
-975
-978
-978
-977
-976
-973
-969
-967
-968
-972
-977
-979
-979
-978
-978
-976
-973
-972
-974
-979
-981
-982
-983
-981
-981
-976
-972
-973
-974
-975
-975
-977
-978
-978
-976
-972
-971
-969
-960
-946
-922
-896
-866
-833
-808
-789
-771
-790
-841
-884
-922
-947
-949
-944
-946
-948
-956
-970
-984
-997
-1008
-1015
-1026
-1028
-1028
-1026
-1020
-1017
-1015
-1009
-1003
-998
-993
-987
-979
-974
-970
-966
-966
-970
-971
-975
-978
-977
-975
-970
-963
-957
-956
-960
-966
-969
-968
-964
-960
-955
-953
-953
-957
-959
-962
-964
-966
-964
-961
-955
-949
-949
-949
-951
-955
-956
-956
-955
-952
-949
-946
-944
-946
-950
-952
-953
-952
-949
-947
-944
-940
-936
-938
-942
-946
-947
-945
-942
-938
-931
-927
-926
-928
-932
-933
-933
-933
-931
-925
-922
-919
-917
-916
-918
-923
-924
-921
-921
-917
-912
-908
-907
-910
-912
-913
-915
-916
-912
-911
-910
-907
-906
-908
-912
-916
-918
-919
-919
-915
-914
-911
-911
-915
-918
-921
-929
-930
-930
-930
-930
-929
-930
-932
-938
-944
-948
-949
-947
-944
-942
-941
-942
-945
-950
-954
-956
-955
-954
-949
-946
-948
-951
-955
-959
-962
-963
-960
-956
-951
-945
-944
-949
-951
-957
-961
-961
-960
-958
-954
-953
-952
-951
-956
-958
-960
-962
-962
-960
-955
-952
-951
-950
-953
-960
-963
-964
-964
-961
-956
-953
-952
-953
-958
-962
-964
-965
-965
-960
-956
-954
-953
-956
-960
-963
-965
-967
-966
-963
-959
-954
-953
-957
-961
-963
-966
-966
-965
-964
-961
-956
-955
-959
-964
-967
-968
-968
-966
-962
-957
-950
-947
-946
-951
-954
-955
-955
-953
-949
-945
-943
-944
-947
-949
-950
-949
-946
-943
-938
-930
-927
-927
-930
-937
-943
-947
-951
-954
-951
-946
-944
-945
-948
-955
-959
-963
-963
-963
-963
-960
-957
-959
-960
-965
-969
-970
-970
-969
-967
-963
-961
-961
-965
-968
-970
-973
-974
-972
-968
-964
-961
-959
-966
-972
-973
-975
-975
-973
-969
-965
-962
-962
-963
-962
-968
-971
-970
-971
-964
-948
-925
-899
-873
-846
-817
-798
-783
-770
-796
-841
-879
-911
-930
-934
-934
-938
-946
-955
-965
-974
-984
-990
-998
-1011
-1017
-1019
-1018
-1012
-1006
-998
-989
-982
-978
-977
-974
-972
-967
-963
-956
-951
-950
-949
-952
-954
-956
-958
-957
-954
-950
-945
-942
-942
-947
-950
-951
-952
-952
-948
-944
-941
-937
-938
-941
-944
-947
-947
-945
-942
-938
-934
-932
-933
-936
-940
-942
-943
-943
-939
-931
-928
-930
-930
-934
-936
-936
-938
-937
-932
-926
-923
-923
-923
-928
-929
-928
-931
-929
-926
-920
-914
-913
-915
-915
-916
-918
-918
-917
-914
-909
-904
-903
-905
-908
-912
-914
-914
-913
-907
-904
-901
-899
-901
-905
-909
-910
-910
-909
-907
-903
-902
-902
-905
-909
-913
-916
-916
-917
-915
-912
-911
-912
-914
-919
-927
-931
-931
-930
-929
-928
-927
-927
-931
-935
-939
-942
-943
-941
-938
-932
-930
-932
-936
-937
-940
-943
-943
-940
-937
-932
-933
-934
-936
-938
-941
-944
-943
-940
-935
-932
-931
-931
-934
-937
-941
-943
-942
-940
-936
-932
-929
-929
-935
-938
-940
-942
-941
-938
-935
-931
-930
-932
-937
-939
-941
-945
-944
-941
-937
-935
-934
-937
-940
-945
-947
-948
-948
-944
-939
-936
-936
-939
-942
-944
-946
-949
-950
-947
-943
-941
-940
-940
-944
-949
-951
-952
-950
-948
-945
-942
-942
-944
-948
-950
-950
-948
-948
-941
-935
-932
-929
-929
-932
-935
-937
-936
-937
-936
-933
-928
-926
-926
-927
-928
-929
-927
-923
-919
-918
-918
-921
-925
-931
-938
-942
-943
-944
-944
-942
-939
-938
-943
-946
-952
-956
-957
-958
-954
-951
-949
-949
-952
-955
-958
-960
-961
-960
-956
-952
-952
-951
-953
-958
-962
-963
-962
-960
-956
-954
-952
-953
-957
-958
-959
-963
-963
-961
-957
-953
-951
-952
-954
-955
-960
-963
-948
-923
-889
-853
-816
-782
-756
-739
-731
-765
-823
-868
-905
-923
-923
-927
-938
-951
-972
-989
-1001
-1008
-1011
-1011
-1011
-1013
-1014
-1014
-1014
-1012
-1002
-990
-976
-967
-960
-957
-958
-959
-961
-960
-958
-957
-953
-949
-946
-947
-949
-952
-954
-954
-953
-949
-944
-940
-940
-942
-944
-946
-949
-950
-948
-945
-940
-938
-934
-935
-938
-942
-944
-944
-941
-937
-934
-930
-928
-929
-932
-934
-937
-937
-935
-932
-928
-924
-923
-923
-927
-931
-931
-931
-930
-926
-920
-915
-916
-916
-919
-920
-922
-921
-917
-911
-908
-904
-903
-903
-905
-908
-910
-910
-906
-903
-898
-895
-894
-896
-899
-901
-902
-902
-901
-896
-893
-891
-890
-891
-896
-899
-902
-902
-901
-899
-894
-894
-895
-899
-906
-909
-912
-916
-914
-914
-913
-912
-913
-919
-923
-928
-932
-936
-937
-935
-932
-931
-932
-936
-938
-941
-945
-947
-947
-944
-940
-937
-938
-941
-946
-948
-950
-949
-948
-945
-941
-939
-939
-942
-946
-949
-950
-950
-949
-945
-940
-938
-940
-942
-946
-949
-950
-950
-949
-946
-943
-941
-941
-945
-949
-951
-952
-952
-948
-947
-945
-943
-943
-948
-951
-953
-955
-955
-951
-948
-945
-943
-944
-949
-952
-955
-958
-957
-954
-949
-945
-946
-949
-954
-957
-958
-960
-960
-957
-954
-950
-949
-950
-952
-954
-954
-953
-949
-942
-937
-932
-929
-931
-935
-939
-942
-941
-941
-938
-934
-930
-928
-929
-929
-932
-931
-929
-927
-925
-923
-922
-924
-929
-937
-942
-945
-949
-950
-949
-946
-943
-943
-944
-949
-953
-958
-962
-961
-959
-956
-955
-954
-956
-960
-963
-964
-966
-966
-961
-958
-955
-954
-955
-958
-965
-970
-968
-965
-962
-957
-955
-955
-958
-960
-961
-966
-967
-966
-960
-956
-953
-953
-958
-963
-968
-966
-954
-929
-892
-853
-812
-775
-743
-722
-715
-753
-812
-862
-900
-919
-922
-925
-937
-954
-978
-995
-1009
-1018
-1020
-1017
-1016
-1018
-1017
-1017
-1010
-1005
-997
-985
-972
-964
-958
-955
-955
-956
-960
-959
-957
-953
-949
-945
-944
-944
-945
-951
-953
-952
-949
-945
-941
-937
-936
-937
-939
-942
-943
-944
-943
-939
-934
-932
-931
-932
-932
-935
-938
-942
-942
-936
-932
-927
-924
-924
-928
-929
-932
-933
-930
-926
-923
-919
-916
-918
-920
-923
-925
-925
-923
-919
-914
-908
-908
-908
-910
-912
-913
-914
-912
-906
-900
-896
-895
-896
-899
-901
-902
-903
-899
-894
-889
-885
-885
-885
-888
-892
-895
-895
-892
-890
-885
-882
-881
-882
-888
-892
-894
-895
-894
-891
-890
-889
-888
-891
-897
-901
-907
-911
-910
-909
-908
-908
-910
-914
-919
-925
-929
-931
-929
-930
-929
-929
-929
-932
-935
-939
-943
-944
-944
-942
-937
-933
-933
-937
-941
-945
-948
-947
-944
-941
-938
-936
-935
-938
-941
-945
-947
-949
-947
-943
-940
-936
-937
-938
-942
-946
-946
-947
-946
-941
-938
-937
-937
-940
-943
-945
-951
-951
-948
-943
-940
-939
-941
-945
-948
-950
-952
-952
-949
-945
-942
-940
-940
-944
-947
-951
-952
-953
-952
-948
-942
-942
-944
-946
-948
-951
-953
-954
-951
-950
-947
-944
-944
-949
-952
-954
-954
-956
-953
-948
-945
-944
-947
-950
-953
-954
-956
-954
-950
-949
-947
-946
-946
-946
-946
-945
-943
-939
-936
-932
-929
-928
-931
-931
-936
-941
-942
-940
-936
-931
-925
-919
-918
-918
-919
-922
-924
-926
-926
-924
-925
-927
-930
-934
-939
-945
-949
-945
-940
-942
-941
-940
-943
-948
-952
-956
-957
-955
-953
-950
-948
-948
-949
-953
-956
-959
-959
-957
-955
-950
-950
-949
-952
-956
-959
-960
-958
-955
-951
-949
-949
-949
-951
-953
-957
-959
-959
-953
-949
-946
-943
-945
-945
-934
-912
-884
-852
-817
-779
-750
-731
-727
-774
-832
-876
-912
-928
-926
-923
-925
-933
-952
-967
-984
-998
-1005
-1008
-1009
-1006
-1002
-998
-996
-994
-990
-984
-977
-971
-963
-956
-950
-945
-944
-944
-946
-949
-950
-949
-945
-941
-936
-935
-936
-937
-940
-944
-945
-944
-941
-936
-933
-932
-931
-933
-938
-939
-941
-940
-934
-930
-926
-924
-926
-930
-932
-934
-935
-935
-931
-926
-923
-921
-920
-921
-925
-928
-929
-926
-921
-918
-915
-913
-914
-917
-918
-920
-921
-920
-914
-910
-908
-907
-907
-909
-911
-912
-911
-910
-905
-901
-896
-894
-893
-895
-899
-902
-902
-900
-897
-891
-886
-886
-888
-891
-893
-893
-896
-894
-891
-886
-884
-884
-886
-890
-894
-895
-897
-896
-894
-892
-891
-892
-895
-899
-903
-907
-912
-913
-911
-908
-909
-911
-915
-920
-926
-930
-930
-929
-927
-924
-923
-926
-928
-932
-936
-938
-939
-937
-933
-931
-930
-931
-933
-935
-939
-941
-941
-941
-936
-932
-929
-930
-931
-934
-938
-939
-939
-937
-933
-931
-928
-930
-933
-936
-940
-940
-944
-941
-936
-933
-930
-930
-933
-937
-942
-944
-942
-941
-938
-934
-933
-935
-939
-941
-941
-943
-945
-942
-939
-937
-935
-937
-942
-944
-946
-946
-947
-943
-939
-936
-936
-939
-943
-945
-946
-949
-950
-944
-942
-939
-940
-941
-942
-945
-950
-951
-950
-949
-946
-943
-942
-942
-944
-947
-949
-952
-952
-947
-943
-941
-940
-938
-943
-944
-942
-944
-940
-933
-929
-926
-924
-928
-931
-935
-937
-937
-937
-933
-927
-923
-922
-919
-919
-921
-921
-922
-924
-922
-920
-921
-922
-926
-932
-936
-941
-946
-944
-940
-936
-935
-936
-940
-944
-949
-953
-955
-954
-950
-946
-944
-944
-946
-949
-952
-955
-955
-953
-952
-948
-943
-944
-947
-951
-954
-954
-956
-954
-949
-945
-944
-943
-947
-952
-953
-955
-953
-948
-945
-943
-939
-942
-946
-940
-923
-898
-869
-836
-800
-769
-748
-734
-756
-809
-856
-893
-917
-920
-915
-913
-917
-931
-948
-969
-983
-994
-996
-999
-1000
-996
-992
-991
-991
-991
-986
-978
-970
-961
-952
-948
-943
-944
-944
-946
-947
-948
-948
-945
-940
-935
-932
-933
-935
-938
-941
-942
-941
-935
-933
-930
-928
-929
-932
-935
-935
-936
-935
-931
-928
-924
-922
-922
-925
-928
-931
-932
-930
-927
-922
-919
-919
-920
-922
-925
-926
-927
-926
-922
-917
-914
-913
-914
-917
-919
-919
-918
-918
-914
-908
-908
-904
-903
-907
-907
-908
-908
-905
-903
-900
-894
-891
-894
-895
-898
-899
-898
-897
-894
-889
-886
-886
-888
-891
-892
-893
-894
-894
-890
-886
-883
-885
-887
-891
-894
-897
-897
-893
-894
-892
-889
-889
-894
-898
-905
-909
-912
-911
-909
-909
-909
-907
-912
-920
-923
-925
-927
-927
-925
-924
-923
-923
-926
-930
-934
-935
-936
-936
-933
-930
-928
-929
-932
-936
-938
-940
-940
-939
-937
-933
-932
-932
-933
-935
-938
-937
-937
-937
-933
-929
-927
-929
-931
-934
-936
-939
-940
-938
-934
-931
-928
-929
-932
-937
-939
-940
-941
-939
-934
-931
-930
-933
-936
-940
-942
-943
-943
-941
-937
-936
-935
-935
-936
-941
-944
-946
-947
-947
-941
-938
-936
-936
-939
-940
-946
-949
-950
-947
-942
-938
-938
-940
-942
-944
-948
-947
-949
-946
-944
-941
-938
-941
-945
-947
-949
-951
-950
-946
-942
-938
-938
-940
-943
-946
-949
-950
-949
-947
-944
-940
-939
-939
-942
-945
-947
-946
-946
-942
-933
-926
-922
-922
-926
-930
-933
-933
-932
-930
-927
-925
-926
-930
-931
-931
-929
-927
-926
-919
-916
-917
-917
-923
-927
-930
-932
-932
-931
-930
-929
-930
-932
-933
-937
-940
-941
-944
-943
-943
-941
-938
-939
-940
-946
-949
-952
-952
-949
-946
-942
-941
-940
-942
-945
-949
-952
-951
-950
-946
-943
-940
-941
-945
-947
-949
-950
-949
-947
-945
-941
-938
-936
-936
-939
-942
-943
-946
-939
-918
-891
-862
-832
-799
-769
-744
-726
-723
-765
-812
-853
-888
-904
-909
-916
-926
-940
-957
-969
-979
-987
-992
-996
-999
-1002
-1001
-1001
-1000
-991
-978
-966
-957
-950
-946
-946
-945
-945
-942
-936
-932
-928
-929
-928
-932
-935
-936
-935
-935
-933
-927
-923
-923
-923
-927
-930
-932
-930
-930
-928
-924
-920
-920
-921
-922
-923
-927
-926
-925
-924
-919
-914
-912
-914
-917
-918
-918
-919
-919
-917
-912
-908
-907
-908
-911
-912
-913
-914
-912
-908
-904
-901
-902
-901
-904
-905
-906
-906
-904
-899
-895
-891
-890
-891
-893
-894
-895
-893
-892
-887
-882
-877
-874
-878
-883
-885
-884
-883
-883
-878
-874
-870
-868
-869
-873
-876
-879
-880
-879
-876
-873
-873
-874
-878
-882
-887
-890
-893
-893
-891
-890
-889
-891
-896
-903
-909
-912
-915
-916
-914
-910
-910
-913
-917
-922
-926
-930
-932
-930
-927
-922
-921
-920
-924
-929
-932
-936
-934
-934
-932
-930
-927
-926
-929
-932
-935
-936
-936
-934
-931
-927
-928
-929
-931
-931
-936
-937
-935
-933
-933
-930
-928
-929
-931
-934
-936
-939
-938
-936
-932
-928
-925
-927
-930
-936
-938
-938
-938
-936
-933
-929
-930
-932
-934
-936
-939
-941
-940
-941
-938
-935
-935
-937
-939
-943
-947
-949
-949
-946
-942
-938
-936
-938
-940
-940
-944
-947
-946
-944
-940
-935
-935
-935
-939
-943
-947
-948
-946
-945
-939
-937
-935
-939
-943
-944
-945
-947
-946
-943
-941
-938
-938
-941
-944
-946
-950
-950
-947
-946
-945
-945
-945
-947
-949
-949
-949
-947
-946
-944
-942
-937
-937
-939
-942
-942
-942
-939
-934
-930
-927
-925
-926
-928
-929
-933
-938
-940
-940
-937
-933
-929
-926
-924
-925
-924
-926
-929
-931
-931
-931
-929
-929
-934
-934
-936
-940
-944
-944
-941
-937
-935
-935
-936
-940
-946
-950
-951
-950
-946
-944
-941
-943
-946
-950
-953
-955
-955
-952
-949
-946
-947
-948
-950
-954
-956
-956
-956
-953
-952
-950
-947
-947
-951
-954
-955
-955
-955
-951
-944
-939
-937
-937
-942
-943
-934
-916
-888
-857
-824
-790
-762
-743
-733
-765
-819
-864
-899
-919
-921
-920
-926
-936
-955
-972
-986
-998
-1005
-1006
-1005
-1006
-1007
-1005
-1003
-1000
-993
-985
-975
-968
-961
-954
-950
-948
-949
-950
-949
-947
-946
-942
-939
-937
-934
-936
-940
-943
-943
-941
-939
-936
-932
-931
-931
-933
-936
-938
-937
-937
-937
-934
-933
-932
-931
-932
-934
-935
-935
-934
-932
-926
-921
-919
-918
-919
-923
-926
-927
-927
-925
-922
-919
-916
-914
-915
-920
-922
-921
-919
-916
-913
-911
-909
-907
-907
-910
-909
-908
-906
-902
-900
-898
-895
-896
-896
-897
-899
-898
-895
-892
-886
-882
-882
-886
-887
-886
-884
-884
-886
-886
-884
-884
-883
-883
-883
-888
-890
-890
-890
-889
-887
-887
-887
-889
-894
-898
-902
-905
-907
-906
-905
-905
-904
-906
-912
-918
-922
-928
-930
-929
-928
-925
-925
-928
-931
-932
-936
-937
-938
-937
-935
-935
-935
-936
-938
-939
-941
-943
-942
-938
-937
-937
-936
-936
-938
-941
-944
-944
-943
-942
-939
-936
-935
-937
-940
-946
-947
-948
-946
-941
-937
-935
-936
-937
-941
-943
-943
-943
-943
-938
-938
-936
-936
-937
-941
-944
-945
-948
-947
-945
-943
-941
-940
-941
-942
-946
-950
-949
-947
-945
-943
-939
-942
-944
-946
-951
-952
-955
-954
-949
-946
-943
-942
-945
-949
-953
-956
-958
-954
-950
-947
-944
-947
-950
-951
-954
-955
-955
-954
-949
-947
-949
-950
-950
-951
-956
-959
-961
-958
-954
-951
-946
-946
-947
-951
-956
-958
-956
-956
-954
-950
-948
-950
-953
-960
-962
-961
-959
-956
-954
-952
-950
-949
-951
-953
-956
-957
-958
-958
-955
-952
-951
-952
-956
-958
-958
-957
-955
-953
-949
-944
-940
-938
-939
-943
-944
-946
-946
-941
-938
-938
-939
-939
-943
-949
-949
-947
-944
-938
-931
-928
-933
-935
-937
-938
-940
-939
-940
-939
-939
-939
-940
-943
-947
-948
-951
-955
-952
-949
-950
-948
-948
-951
-956
-958
-959
-959
-957
-954
-951
-949
-950
-952
-955
-954
-955
-959
-963
-959
-954
-951
-953
-954
-956
-957
-958
-961
-960
-957
-953
-949
-946
-947
-946
-949
-949
-949
-950
-940
-922
-898
-869
-842
-815
-787
-766
-748
-751
-793
-837
-873
-906
-922
-927
-931
-938
-950
-963
-974
-983
-991
-996
-1001
-1008
-1011
-1012
-1010
-1004
-997
-986
-975
-968
-965
-965
-965
-962
-959
-953
-947
-942
-939
-940
-942
-945
-944
-946
-948
-945
-940
-935
-930
-931
-934
-936
-939
-943
-941
-937
-934
-931
-928
-929
-929
-933
-935
-937
-938
-935
-930
-929
-926
-929
-929
-931
-931
-931
-930
-928
-922
-918
-917
-917
-919
-922
-924
-925
-923
-920
-918
-914
-912
-912
-916
-916
-915
-916
-915
-910
-904
-901
-898
-897
-899
-902
-902
-902
-902
-899
-894
-890
-885
-884
-887
-892
-895
-895
-893
-890
-888
-883
-879
-880
-882
-887
-889
-890
-890
-888
-886
-885
-886
-888
-892
-895
-898
-898
-899
-898
-897
-895
-897
-902
-906
-912
-917
-921
-922
-921
-919
-918
-919
-921
-923
-929
-935
-939
-939
-938
-935
-933
-932
-935
-938
-941
-945
-946
-947
-945
-939
-936
-935
-936
-940
-944
-945
-948
-947
-944
-939
-936
-935
-936
-940
-943
-945
-946
-944
-939
-936
-936
-936
-940
-944
-946
-947
-945
-942
-939
-935
-935
-936
-937
-941
-943
-945
-945
-944
-942
-937
-936
-938
-941
-945
-947
-948
-948
-948
-945
-941
-938
-938
-941
-945
-947
-949
-954
-949
-945
-942
-940
-941
-946
-950
-953
-956
-956
-954
-950
-945
-943
-942
-944
-950
-952
-954
-954
-951
-947
-946
-945
-946
-951
-952
-955
-955
-952
-950
-948
-946
-945
-947
-950
-952
-954
-957
-956
-952
-951
-948
-946
-948
-951
-955
-956
-958
-958
-954
-952
-949
-948
-949
-950
-952
-955
-956
-955
-955
-951
-948
-946
-946
-949
-954
-958
-959
-959
-956
-953
-949
-946
-947
-951
-955
-956
-958
-957
-952
-947
-939
-935
-935
-937
-942
-945
-946
-943
-942
-940
-938
-941
-944
-945
-944
-940
-939
-934
-930
-929
-927
-928
-933
-937
-942
-945
-946
-944
-943
-940
-939
-942
-946
-947
-949
-951
-951
-952
-952
-949
-948
-948
-952
-956
-959
-961
-961
-959
-956
-953
-949
-949
-951
-954
-957
-959
-960
-960
-957
-953
-954
-954
-957
-960
-958
-958
-957
-956
-954
-953
-950
-948
-951
-954
-953
-953
-953
-951
-939
-917
-886
-853
-821
-791
-761
-737
-720
-744
-797
-842
-884
-915
-925
-931
-939
-951
-968
-985
-993
-1001
-1006
-1011
-1016
-1019
-1018
-1016
-1013
-1005
-993
-980
-970
-964
-960
-958
-957
-957
-958
-952
-945
-940
-938
-939
-942
-944
-947
-948
-947
-944
-939
-935
-932
-932
-933
-937
-941
-942
-941
-938
-933
-930
-928
-929
-931
-934
-937
-939
-939
-935
-929
-923
-921
-923
-925
-929
-932
-931
-929
-927
-922
-917
-914
-917
-919
-923
-925
-925
-920
-915
-912
-909
-907
-906
-910
-912
-911
-911
-909
-905
-899
-897
-895
-894
-895
-897
-898
-897
-893
-890
-885
-881
-878
-880
-883
-886
-886
-886
-884
-880
-874
-871
-870
-871
-875
-879
-881
-881
-880
-876
-875
-873
-871
-875
-880
-886
-890
-892
-893
-892
-890
-891
-894
-898
-902
-908
-912
-915
-916
-914
-912
-914
-917
-921
-928
-930
-934
-937
-937
-935
-934
-934
-934
-937
-940
-941
-943
-944
-943
-941
-939
-934
-934
-938
-941
-942
-942
-944
-942
-939
-937
-935
-934
-936
-940
-942
-943
-943
-939
-936
-935
-933
-932
-934
-940
-942
-943
-943
-941
-937
-934
-934
-936
-939
-945
-946
-948
-946
-940
-939
-936
-936
-940
-941
-940
-943
-946
-946
-943
-940
-939
-937
-938
-941
-946
-948
-950
-950
-946
-941
-940
-939
-941
-943
-946
-949
-951
-950
-948
-945
-942
-942
-944
-947
-952
-954
-956
-955
-952
-949
-945
-942
-944
-946
-949
-952
-952
-952
-951
-947
-944
-945
-945
-948
-951
-954
-956
-956
-953
-950
-948
-947
-947
-948
-951
-954
-955
-954
-949
-949
-948
-947
-947
-951
-954
-957
-957
-956
-953
-949
-948
-947
-949
-952
-955
-958
-958
-957
-954
-951
-947
-948
-950
-954
-957
-958
-957
-957
-953
-948
-946
-944
-946
-950
-953
-954
-951
-946
-939
-935
-934
-935
-937
-938
-940
-945
-946
-945
-943
-940
-935
-933
-932
-934
-936
-936
-937
-936
-935
-935
-932
-931
-933
-937
-942
-948
-950
-951
-948
-943
-939
-941
-948
-952
-953
-954
-957
-956
-953
-950
-950
-951
-953
-959
-961
-960
-957
-955
-953
-951
-949
-950
-952
-956
-961
-962
-960
-956
-953
-951
-951
-953
-954
-956
-960
-963
-961
-956
-951
-945
-944
-941
-942
-948
-947
-931
-908
-875
-835
-797
-759
-729
-707
-703
-753
-814
-863
-900
-916
-914
-916
-927
-946
-973
-995
-1009
-1015
-1017
-1017
-1013
-1010
-1009
-1009
-1005
-999
-992
-984
-975
-965
-955
-951
-951
-950
-949
-948
-949
-947
-946
-943
-938
-939
-941
-943
-945
-946
-945
-945
-942
-937
-935
-935
-937
-940
-941
-942
-944
-943
-940
-933
-931
-931
-932
-936
-938
-938
-937
-935
-931
-926
-924
-925
-926
-930
-933
-933
-932
-930
-925
-923
-920
-915
-917
-919
-920
-922
-922
-920
-916
-911
-906
-904
-907
-909
-908
-910
-910
-907
-903
-900
-893
-891
-893
-893
-898
-901
-899
-893
-888
-885
-880
-879
-882
-886
-889
-890
-889
-887
-881
-877
-876
-877
-879
-880
-880
-884
-885
-885
-882
-877
-878
-880
-887
-891
-897
-902
-903
-903
-902
-902
-902
-905
-911
-917
-921
-925
-927
-928
-924
-925
-927
-929
-933
-940
-943
-946
-948
-946
-941
-937
-936
-938
-941
-946
-948
-948
-947
-947
-947
-942
-939
-940
-942
-946
-946
-948
-947
-944
-941
-939
-939
-941
-942
-944
-947
-947
-946
-945
-939
-938
-937
-939
-943
-946
-949
-950
-947
-944
-942
-939
-942
-943
-944
-945
-948
-951
-950
-949
-949
-944
-940
-942
-946
-949
-952
-953
-952
-949
-945
-943
-941
-944
-950
-952
-951
-951
-952
-950
-949
-948
-948
-948
-950
-953
-955
-955
-954
-953
-951
-947
-947
-951
-955
-957
-958
-957
-956
-954
-952
-950
-951
-954
-960
-962
-961
-961
-959
-957
-950
-948
-949
-952
-956
-959
-961
-962
-959
-955
-953
-951
-951
-954
-959
-960
-962
-964
-960
-959
-956
-954
-952
-953
-956
-960
-963
-963
-961
-957
-953
-951
-952
-957
-960
-963
-963
-962
-960
-956
-954
-953
-953
-954
-957
-959
-957
-952
-948
-945
-941
-941
-943
-944
-945
-950
-954
-957
-954
-948
-939
-934
-935
-938
-941
-945
-947
-947
-945
-943
-939
-939
-940
-941
-947
-952
-954
-958
-956
-951
-946
-946
-949
-952
-958
-963
-965
-964
-961
-960
-957
-957
-959
-962
-965
-967
-968
-966
-963
-961
-958
-956
-957
-959
-964
-966
-969
-966
-962
-958
-954
-953
-956
-960
-963
-964
-964
-962
-959
-950
-946
-947
-951
-954
-947
-929
-902
-873
-839
-803
-773
-754
-739
-765
-821
-871
-909
-932
-934
-928
-928
-934
-949
-967
-982
-997
-1006
-1010
-1010
-1009
-1006
-1005
-1006
-1007
-1006
-999
-990
-980
-971
-963
-958
-954
-952
-954
-955
-956
-957
-956
-952
-949
-945
-944
-947
-950
-953
-953
-952
-951
-946
-941
-936
-936
-938
-940
-940
-942
-946
-944
-941
-936
-933
-934
-937
-940
-942
-941
-941
-938
-934
-931
-928
-930
-933
-935
-937
-937
-936
-933
-931
-928
-924
-922
-924
-927
-931
-930
-929
-926
-923
-920
-916
-915
-916
-916
-917
-917
-916
-911
-907
-903
-900
-901
-902
-903
-902
-902
-900
-898
-896
-893
-891
-891
-892
-894
-897
-897
-897
-893
-889
-887
-885
-887
-891
-894
-897
-900
-900
-898
-897
-893
-894
-898
-902
-906
-910
-914
-917
-916
-914
-913
-914
-918
-922
-927
-932
-933
-935
-935
-932
-931
-932
-935
-938
-943
-944
-947
-946
-943
-942
-941
-942
-943
-947
-952
-952
-952
-951
-947
-945
-944
-942
-942
-946
-950
-953
-954
-954
-950
-945
-940
-940
-943
-947
-950
-952
-950
-950
-947
-943
-939
-939
-941
-945
-946
-950
-951
-951
-946
-942
-941
-942
-943
-946
-954
-955
-951
-950
-947
-945
-944
-942
-946
-948
-952
-955
-954
-951
-948
-947
-946
-946
-948
-952
-954
-957
-958
-956
-953
-950
-947
-946
-948
-952
-957
-958
-956
-956
-953
-948
-948
-947
-949
-952
-955
-957
-957
-955
-951
-949
-948
-949
-953
-956
-959
-959
-959
-957
-952
-950
-950
-949
-952
-957
-961
-961
-960
-959
-956
-953
-951
-952
-954
-957
-959
-959
-958
-956
-953
-952
-952
-953
-955
-958
-959
-960
-959
-956
-953
-950
-951
-954
-957
-958
-960
-961
-959
-958
-954
-950
-948
-949
-953
-953
-951
-948
-945
-942
-940
-938
-939
-940
-943
-947
-950
-950
-948
-945
-939
-935
-933
-933
-935
-938
-942
-944
-945
-944
-940
-938
-939
-941
-945
-950
-951
-954
-954
-950
-945
-944
-945
-948
-953
-959
-962
-962
-961
-957
-954
-951
-951
-954
-959
-962
-964
-964
-962
-959
-956
-954
-954
-957
-959
-963
-965
-964
-961
-957
-955
-954
-954
-957
-960
-961
-960
-958
-956
-951
-948
-945
-946
-949
-944
-927
-901
-868
-831
-792
-753
-723
-703
-718
-777
-834
-883
-918
-927
-926
-929
-940
-957
-981
-997
-1011
-1022
-1024
-1020
-1017
-1014
-1012
-1008
-1002
-997
-990
-980
-972
-964
-956
-950
-948
-946
-947
-948
-950
-951
-950
-944
-941
-937
-935
-935
-938
-941
-944
-946
-944
-941
-938
-934
-932
-932
-935
-937
-939
-940
-938
-936
-932
-928
-926
-927
-930
-932
-936
-936
-932
-929
-925
-922
-921
-921
-926
-928
-928
-928
-924
-919
-916
-914
-911
-914
-915
-916
-918
-917
-912
-911
-905
-900
-900
-903
-903
-904
-905
-903
-900
-897
-892
-888
-886
-886
-885
-885
-885
-886
-885
-881
-877
-873
-871
-872
-874
-876
-879
-878
-876
-873
-867
-863
-865
-867
-871
-877
-880
-881
-879
-877
-875
-875
-877
-883
-886
-890
-894
-899
-903
-902
-900
-900
-903
-907
-914
-919
-923
-927
-926
-923
-923
-924
-926
-929
-933
-937
-940
-942
-943
-941
-938
-935
-934
-937
-939
-942
-946
-947
-943
-939
-936
-932
-935
-938
-941
-942
-943
-944
-941
-938
-936
-934
-933
-938
-941
-943
-944
-946
-943
-939
-935
-933
-933
-935
-938
-940
-943
-942
-940
-940
-936
-933
-936
-939
-942
-945
-946
-947
-947
-942
-938
-937
-938
-941
-943
-947
-949
-950
-947
-942
-940
-940
-941
-943
-947
-950
-952
-952
-949
-945
-942
-940
-940
-944
-946
-949
-951
-952
-949
-946
-944
-944
-944
-946
-950
-951
-952
-951
-950
-947
-944
-944
-945
-949
-954
-954
-952
-953
-950
-947
-943
-945
-948
-951
-953
-956
-957
-955
-953
-950
-945
-945
-947
-951
-955
-958
-958
-957
-953
-949
-947
-946
-948
-952
-956
-959
-960
-959
-956
-954
-950
-948
-951
-953
-957
-960
-959
-957
-953
-951
-949
-950
-951
-955
-957
-958
-956
-954
-948
-944
-937
-936
-938
-942
-945
-948
-948
-947
-945
-943
-939
-937
-939
-939
-939
-941
-941
-938
-934
-932
-932
-934
-938
-942
-946
-948
-948
-949
-947
-946
-946
-945
-945
-950
-954
-955
-955
-956
-953
-951
-949
-949
-952
-956
-960
-963
-960
-959
-957
-955
-954
-955
-956
-958
-961
-960
-960
-957
-955
-952
-951
-952
-955
-958
-960
-962
-961
-960
-956
-953
-949
-946
-947
-948
-950
-954
-952
-936
-908
-874
-840
-807
-777
-753
-736
-729
-771
-821
-862
-897
-916
-919
-925
-933
-947
-966
-981
-991
-997
-1002
-1003
-1003
-1008
-1011
-1012
-1012
-1006
-995
-982
-971
-964
-961
-959
-958
-958
-958
-953
-950
-946
-944
-942
-941
-945
-947
-947
-949
-948
-943
-940
-937
-935
-936
-940
-943
-944
-943
-941
-938
-935
-932
-930
-931
-937
-939
-940
-940
-938
-935
-930
-927
-927
-928
-930
-934
-938
-936
-932
-930
-926
-921
-920
-923
-926
-928
-929
-927
-926
-922
-915
-913
-914
-914
-917
-920
-919
-917
-914
-910
-906
-900
-898
-900
-902
-903
-903
-902
-900
-894
-889
-888
-888
-888
-892
-893
-894
-894
-893
-888
-882
-880
-880
-882
-885
-888
-891
-891
-891
-889
-885
-884
-886
-889
-891
-895
-898
-901
-903
-902
-900
-900
-902
-908
-915
-918
-923
-925
-926
-923
-922
-924
-927
-931
-936
-941
-944
-944
-941
-937
-935
-938
-941
-945
-949
-951
-954
-955
-951
-948
-944
-942
-942
-943
-947
-949
-948
-948
-946
-945
-940
-937
-940
-945
-949
-951
-954
-951
-948
-945
-941
-940
-941
-944
-947
-950
-950
-949
-947
-941
-940
-939
-941
-943
-947
-951
-952
-950
-946
-943
-941
-942
-945
-948
-952
-955
-955
-952
-949
-947
-945
-942
-944
-948
-951
-952
-954
-951
-951
-949
-944
-945
-947
-952
-955
-956
-958
-956
-952
-949
-946
-946
-950
-954
-959
-962
-961
-957
-952
-950
-948
-947
-949
-951
-955
-957
-958
-956
-952
-950
-948
-948
-949
-953
-956
-959
-960
-957
-954
-950
-948
-950
-952
-954
-957
-961
-959
-956
-954
-950
-948
-950
-951
-955
-959
-961
-962
-961
-957
-953
-951
-953
-955
-957
-958
-959
-961
-958
-954
-952
-950
-950
-953
-957
-958
-959
-960
-957
-952
-949
-947
-948
-950
-952
-953
-950
-949
-946
-941
-941
-941
-939
-944
-950
-952
-955
-953
-946
-940
-936
-935
-935
-937
-941
-947
-952
-950
-947
-943
-939
-937
-937
-943
-951
-954
-956
-956
-952
-948
-949
-949
-951
-954
-959
-961
-962
-961
-959
-958
-956
-954
-955
-959
-961
-963
-964
-962
-958
-956
-954
-953
-957
-958
-960
-964
-966
-964
-961
-959
-956
-954
-954
-952
-953
-956
-956
-952
-948
-944
-943
-945
-945
-933
-913
-885
-851
-817
-779
-746
-722
-709
-748
-806
-856
-899
-924
-927
-926
-929
-939
-957
-974
-990
-1005
-1015
-1019
-1016
-1011
-1005
-1000
-996
-995
-990
-983
-975
-969
-961
-953
-947
-943
-940
-942
-943
-945
-948
-947
-944
-943
-939
-935
-936
-937
-941
-942
-943
-942
-940
-938
-933
-930
-930
-931
-934
-938
-938
-938
-934
-931
-928
-924
-925
-927
-933
-936
-936
-932
-929
-924
-919
-917
-915
-919
-922
-926
-926
-924
-922
-917
-915
-913
-912
-914
-916
-917
-918
-916
-914
-910
-905
-901
-900
-903
-906
-906
-906
-903
-898
-893
-888
-887
-888
-890
-891
-894
-893
-889
-882
-876
-876
-873
-873
-874
-878
-881
-880
-877
-875
-871
-868
-867
-869
-873
-877
-880
-882
-883
-881
-881
-880
-881
-884
-889
-895
-899
-903
-905
-905
-903
-902
-905
-909
-916
-923
-926
-930
-932
-930
-929
-925
-923
-926
-931
-936
-941
-942
-942
-939
-936
-936
-937
-938
-940
-944
-946
-946
-947
-943
-940
-937
-937
-938
-941
-945
-946
-947
-945
-942
-939
-937
-936
-937
-941
-945
-948
-947
-947
-945
-941
-938
-939
-941
-945
-948
-950
-949
-943
-939
-937
-935
-937
-938
-940
-944
-947
-946
-945
-943
-939
-938
-939
-941
-944
-947
-950
-949
-947
-944
-941
-938
-939
-943
-945
-948
-950
-949
-949
-945
-942
-940
-940
-943
-946
-949
-952
-952
-949
-946
-943
-942
-943
-944
-949
-949
-949
-949
-947
-944
-941
-939
-941
-945
-947
-950
-951
-949
-950
-948
-945
-944
-944
-947
-952
-954
-955
-954
-951
-949
-945
-944
-945
-948
-952
-954
-955
-955
-952
-950
-948
-946
-947
-950
-952
-954
-956
-954
-952
-951
-951
-950
-952
-953
-954
-957
-958
-955
-952
-949
-945
-946
-950
-951
-955
-958
-958
-956
-952
-948
-945
-943
-943
-943
-943
-943
-944
-943
-939
-936
-934
-936
-940
-943
-944
-945
-942
-940
-935
-930
-926
-925
-927
-935
-940
-943
-943
-942
-941
-938
-936
-939
-944
-950
-954
-955
-954
-952
-948
-945
-945
-947
-950
-954
-958
-960
-960
-959
-955
-952
-950
-951
-953
-956
-960
-962
-961
-959
-956
-953
-951
-952
-954
-955
-959
-961
-960
-960
-956
-952
-950
-950
-953
-954
-955
-957
-957
-954
-953
-949
-941
-922
-895
-862
-829
-794
-757
-727
-701
-706
-762
-820
-870
-907
-922
-928
-933
-939
-952
-970
-983
-995
-1006
-1014
-1017
-1019
-1017
-1013
-1006
-999
-988
-978
-973
-970
-966
-961
-958
-954
-947
-941
-938
-938
-941
-942
-946
-947
-945
-939
-932
-932
-931
-933
-936
-937
-940
-941
-939
-936
-932
-928
-926
-927
-931
-934
-935
-935
-934
-930
-926
-923
-922
-924
-927
-929
-931
-931
-930
-927
-922
-918
-915
-916
-919
-922
-923
-922
-922
-918
-913
-910
-906
-908
-910
-913
-916
-914
-912
-906
-898
-894
-894
-894
-896
-900
-901
-899
-895
-891
-886
-882
-879
-879
-882
-884
-884
-882
-879
-876
-872
-869
-868
-871
-874
-877
-879
-879
-876
-871
-870
-867
-869
-870
-873
-878
-881
-883
-883
-882
-880
-880
-883
-888
-894
-900
-903
-903
-905
-903
-902
-904
-906
-912
-918
-924
-928
-929
-930
-931
-927
-926
-928
-931
-934
-938
-940
-941
-939
-935
-933
-934
-935
-939
-942
-944
-943
-942
-939
-936
-934
-931
-933
-935
-940
-944
-944
-944
-940
-936
-932
-931
-934
-936
-941
-944
-944
-944
-941
-937
-934
-933
-936
-939
-942
-945
-946
-945
-942
-939
-938
-937
-938
-941
-945
-948
-949
-949
-946
-944
-942
-939
-942
-945
-948
-951
-953
-950
-947
-946
-943
-942
-943
-946
-949
-952
-953
-953
-952
-948
-944
-944
-947
-952
-954
-958
-956
-953
-952
-947
-945
-945
-947
-951
-955
-957
-958
-958
-955
-951
-948
-948
-950
-952
-956
-959
-960
-958
-953
-950
-948
-949
-950
-953
-956
-958
-959
-958
-954
-951
-949
-949
-951
-953
-956
-959
-960
-958
-954
-949
-947
-948
-950
-955
-959
-960
-959
-957
-954
-952
-947
-945
-948
-951
-951
-950
-949
-945
-940
-937
-936
-938
-941
-944
-946
-948
-947
-942
-936
-932
-930
-930
-932
-936
-939
-943
-944
-944
-940
-936
-934
-934
-938
-945
-952
-955
-955
-953
-951
-946
-945
-947
-951
-955
-959
-961
-960
-959
-956
-951
-950
-952
-956
-960
-960
-962
-964
-960
-956
-954
-953
-953
-957
-960
-963
-965
-964
-961
-956
-953
-953
-954
-955
-958
-959
-959
-956
-955
-951
-948
-950
-947
-935
-915
-886
-853
-819
-783
-754
-732
-728
-776
-834
-880
-916
-930
-928
-926
-928
-937
-955
-968
-983
-998
-1007
-1014
-1017
-1015
-1012
-1005
-1001
-999
-996
-991
-983
-978
-973
-965
-958
-951
-950
-950
-952
-955
-956
-955
-954
-950
-946
-943
-941
-945
-946
-948
-951
-952
-950
-945
-941
-938
-938
-939
-941
-943
-945
-945
-943
-941
-937
-934
-933
-934
-940
-942
-943
-942
-940
-936
-931
-929
-929
-929
-932
-934
-937
-937
-934
-929
-926
-924
-923
-925
-926
-927
-928
-928
-924
-919
-914
-911
-910
-911
-914
-915
-916
-916
-913
-907
-902
-898
-896
-899
-901
-903
-902
-900
-898
-893
-889
-887
-888
-889
-893
-896
-896
-894
-891
-886
-883
-880
-881
-889
-894
-898
-899
-901
-899
-898
-898
-898
-898
-903
-908
-912
-916
-918
-917
-914
-914
-917
-920
-925
-930
-936
-938
-940
-938
-936
-934
-935
-937
-941
-945
-948
-951
-951
-948
-945
-941
-941
-942
-946
-949
-951
-953
-955
-952
-947
-944
-942
-944
-949
-952
-954
-954
-955
-952
-945
-941
-941
-945
-947
-951
-952
-954
-952
-950
-947
-945
-945
-946
-949
-953
-956
-954
-953
-950
-947
-945
-944
-947
-951
-953
-954
-956
-956
-952
-949
-947
-946
-949
-952
-954
-955
-957
-956
-953
-949
-946
-947
-951
-956
-958
-961
-961
-959
-956
-953
-950
-949
-953
-957
-959
-959
-957
-957
-956
-952
-951
-952
-954
-958
-961
-962
-962
-960
-956
-952
-951
-953
-954
-958
-961
-961
-963
-961
-957
-954
-954
-952
-955
-958
-963
-964
-963
-961
-957
-956
-952
-954
-958
-958
-960
-962
-963
-960
-952
-945
-941
-940
-943
-945
-949
-949
-949
-948
-945
-944
-943
-942
-943
-943
-944
-944
-943
-941
-937
-935
-936
-938
-942
-945
-948
-950
-950
-950
-948
-948
-948
-949
-951
-954
-958
-960
-959
-959
-959
-955
-954
-955
-959
-963
-968
-970
-966
-961
-958
-955
-954
-956
-960
-965
-966
-967
-966
-963
-958
-954
-954
-957
-961
-964
-966
-966
-965
-961
-957
-952
-950
-949
-954
-956
-959
-964
-958
-939
-912
-878
-849
-817
-788
-766
-751
-749
-790
-835
-870
-901
-916
-917
-922
-932
-944
-962
-973
-982
-988
-993
-1000
-1006
-1011
-1014
-1014
-1010
-1006
-996
-985
-974
-968
-965
-963
-962
-962
-960
-958
-952
-948
-946
-945
-946
-949
-953
-953
-952
-949
-944
-940
-937
-937
-940
-942
-944
-946
-946
-944
-940
-935
-933
-934
-935
-937
-940
-941
-940
-937
-935
-932
-927
-928
-931
-935
-937
-938
-937
-935
-930
-925
-922
-923
-926
-928
-931
-931
-927
-926
-921
-916
-914
-914
-915
-917
-919
-920
-918
-915
-911
-906
-901
-899
-903
-905
-905
-905
-904
-900
-894
-890
-888
-888
-890
-893
-896
-894
-893
-890
-885
-881
-881
-881
-884
-888
-890
-890
-892
-890
-887
-884
-884
-888
-892
-897
-900
-903
-904
-904
-904
-904
-904
-909
-914
-920
-925
-928
-928
-927
-925
-924
-926
-928
-933
-937
-941
-943
-943
-941
-938
-936
-936
-939
-943
-945
-948
-949
-948
-946
-942
-939
-939
-941
-945
-948
-950
-951
-949
-946
-942
-939
-939
-941
-943
-946
-949
-950
-948
-946
-940
-940
-941
-944
-947
-949
-951
-951
-951
-947
-944
-940
-940
-943
-947
-950
-952
-952
-951
-947
-945
-943
-942
-945
-948
-953
-955
-956
-954
-950
-946
-944
-944
-947
-951
-954
-956
-956
-955
-952
-948
-946
-946
-949
-953
-957
-959
-959
-954
-952
-950
-948
-947
-950
-955
-958
-959
-959
-958
-953
-950
-948
-948
-951
-956
-959
-960
-959
-956
-953
-949
-947
-949
-954
-957
-960
-962
-961
-957
-954
-950
-950
-951
-954
-957
-959
-959
-957
-951
-943
-936
-932
-935
-938
-942
-946
-946
-947
-946
-944
-941
-940
-938
-937
-939
-940
-941
-939
-936
-933
-932
-932
-935
-938
-943
-946
-947
-948
-947
-947
-947
-947
-947
-951
-955
-957
-959
-960
-959
-956
-953
-952
-954
-957
-960
-965
-966
-965
-961
-957
-955
-953
-956
-960
-964
-966
-966
-965
-959
-956
-955
-953
-955
-959
-962
-964
-964
-964
-959
-954
-949
-948
-950
-954
-958
-961
-961
-949
-924
-891
-854
-819
-784
-752
-728
-712
-732
-787
-837
-879
-908
-916
-921
-930
-944
-966
-985
-998
-1006
-1010
-1011
-1012
-1014
-1015
-1015
-1016
-1009
-998
-986
-973
-963
-958
-956
-956
-957
-957
-956
-954
-948
-944
-942
-941
-943
-946
-949
-950
-949
-946
-942
-939
-937
-935
-937
-939
-943
-943
-944
-942
-938
-933
-930
-930
-934
-937
-938
-939
-940
-935
-932
-929
-926
-928
-930
-932
-932
-934
-933
-930
-926
-922
-919
-920
-923
-925
-927
-927
-926
-923
-918
-914
-911
-910
-913
-914
-915
-914
-913
-909
-903
-898
-896
-897
-898
-900
-900
-900
-898
-894
-890
-884
-882
-882
-883
-886
-887
-886
-889
-885
-880
-876
-876
-877
-879
-881
-884
-888
-888
-886
-881
-878
-880
-884
-888
-894
-898
-902
-904
-902
-901
-900
-902
-906
-912
-918
-922
-925
-928
-928
-927
-926
-927
-930
-936
-940
-944
-947
-946
-944
-941
-939
-938
-941
-946
-949
-950
-952
-951
-948
-944
-943
-943
-946
-949
-951
-952
-952
-949
-947
-944
-942
-943
-944
-948
-951
-953
-952
-951
-948
-945
-942
-942
-944
-947
-950
-953
-954
-951
-948
-946
-943
-942
-944
-949
-952
-954
-953
-954
-950
-946
-946
-947
-948
-953
-955
-955
-955
-954
-951
-945
-944
-946
-952
-956
-959
-958
-958
-957
-953
-949
-948
-950
-952
-955
-958
-961
-960
-958
-956
-953
-951
-952
-956
-960
-962
-962
-962
-959
-955
-952
-950
-952
-955
-957
-960
-963
-962
-959
-956
-953
-952
-953
-956
-959
-961
-962
-961
-959
-955
-949
-944
-940
-941
-944
-948
-949
-949
-946
-941
-940
-942
-945
-947
-949
-947
-945
-943
-940
-933
-930
-932
-935
-939
-944
-947
-948
-948
-945
-943
-943
-946
-949
-951
-954
-957
-959
-958
-956
-954
-955
-955
-956
-960
-965
-967
-966
-964
-962
-957
-953
-955
-956
-960
-965
-967
-967
-966
-963
-961
-957
-956
-957
-963
-966
-968
-968
-965
-962
-958
-955
-955
-955
-958
-957
-958
-958
-957
-955
-947
-929
-908
-880
-854
-825
-793
-768
-747
-745
-788
-837
-876
-911
-929
-931
-934
-942
-950
-964
-974
-983
-994
-1002
-1009
-1015
-1018
-1018
-1013
-1009
-1000
-991
-984
-977
-975
-973
-968
-965
-962
-957
-949
-946
-947
-948
-951
-954
-955
-954
-949
-945
-942
-941
-940
-942
-945
-949
-952
-952
-946
-941
-940
-939
-938
-940
-944
-947
-948
-947
-943
-941
-937
-935
-934
-937
-940
-943
-942
-940
-937
-930
-928
-927
-926
-929
-933
-935
-935
-934
-931
-925
-922
-918
-919
-920
-921
-924
-923
-921
-918
-913
-909
-906
-906
-908
-911
-910
-910
-908
-903
-899
-896
-893
-894
-896
-900
-902
-902
-899
-896
-893
-890
-889
-888
-890
-891
-892
-893
-892
-888
-884
-884
-885
-889
-894
-898
-902
-904
-906
-906
-903
-902
-905
-909
-913
-920
-924
-926
-930
-928
-926
-925
-926
-930
-935
-940
-944
-944
-944
-943
-941
-940
-941
-945
-949
-951
-955
-956
-954
-951
-947
-946
-945
-947
-951
-954
-955
-955
-952
-948
-946
-945
-946
-949
-949
-949
-952
-953
-950
-946
-943
-943
-943
-945
-949
-952
-953
-954
-952
-949
-945
-942
-942
-946
-949
-953
-955
-955
-954
-953
-948
-946
-948
-952
-954
-955
-957
-957
-956
-951
-946
-946
-946
-949
-953
-956
-956
-958
-956
-952
-949
-948
-949
-952
-955
-959
-961
-961
-960
-956
-952
-950
-952
-955
-958
-960
-962
-962
-959
-954
-951
-952
-954
-956
-958
-963
-965
-963
-962
-957
-953
-952
-953
-956
-961
-963
-963
-963
-959
-954
-952
-949
-951
-955
-960
-961
-963
-964
-962
-959
-956
-954
-954
-955
-957
-958
-957
-952
-945
-941
-938
-939
-942
-944
-947
-950
-951
-952
-950
-946
-943
-940
-939
-938
-940
-941
-942
-941
-940
-939
-937
-938
-941
-942
-944
-946
-950
-953
-952
-951
-949
-947
-949
-952
-956
-959
-961
-960
-960
-957
-954
-954
-956
-958
-963
-966
-964
-962
-964
-960
-958
-958
-960
-963
-965
-968
-967
-964
-961
-957
-959
-959
-961
-965
-966
-965
-964
-963
-958
-955
-952
-951
-952
-953
-959
-959
-946
-921
-886
-850
-814
-779
-750
-731
-722
-760
-819
-866
-904
-923
-923
-926
-934
-950
-973
-991
-1005
-1016
-1019
-1016
-1014
-1012
-1013
-1013
-1012
-1007
-998
-984
-974
-966
-961
-959
-958
-959
-957
-954
-951
-950
-946
-941
-941
-943
-945
-947
-949
-949
-947
-944
-941
-938
-934
-934
-936
-939
-943
-945
-945
-942
-937
-932
-930
-934
-935
-939
-942
-944
-942
-937
-933
-929
-927
-929
-928
-931
-936
-939
-936
-930
-924
-918
-915
-916
-918
-921
-924
-924
-922
-918
-912
-908
-905
-905
-909
-912
-913
-910
-907
-905
-901
-894
-891
-890
-892
-894
-897
-895
-892
-888
-884
-879
-878
-880
-884
-886
-887
-887
-883
-877
-873
-868
-869
-872
-877
-884
-884
-884
-884
-882
-881
-879
-880
-883
-887
-892
-897
-901
-904
-904
-903
-903
-904
-907
-913
-920
-924
-927
-927
-926
-928
-930
-933
-938
-943
-944
-946
-945
-944
-941
-938
-937
-938
-940
-941
-946
-952
-954
-954
-949
-941
-938
-939
-941
-946
-949
-949
-949
-946
-942
-939
-940
-942
-944
-946
-949
-951
-952
-948
-944
-941
-939
-940
-941
-946
-949
-951
-951
-949
-948
-944
-941
-941
-944
-946
-951
-954
-953
-949
-946
-944
-941
-942
-945
-951
-952
-953
-953
-951
-946
-942
-942
-942
-944
-950
-954
-954
-955
-953
-949
-947
-945
-946
-950
-953
-955
-957
-958
-956
-955
-952
-952
-954
-953
-952
-952
-953
-953
-952
-948
-946
-948
-950
-952
-954
-956
-957
-957
-956
-951
-947
-948
-950
-951
-953
-956
-957
-954
-949
-948
-947
-946
-949
-953
-956
-958
-959
-958
-955
-951
-947
-945
-947
-949
-952
-955
-956
-955
-952
-949
-947
-948
-950
-952
-953
-954
-957
-954
-947
-938
-932
-931
-930
-934
-937
-939
-940
-937
-936
-934
-933
-935
-936
-937
-936
-935
-934
-932
-926
-921
-920
-922
-927
-931
-935
-938
-941
-941
-940
-940
-939
-940
-941
-941
-945
-947
-948
-947
-945
-945
-945
-945
-947
-950
-953
-956
-954
-953
-949
-945
-942
-941
-945
-949
-953
-955
-954
-951
-948
-946
-946
-946
-948
-950
-955
-956
-955
-952
-950
-946
-943
-942
-943
-945
-948
-950
-951
-952
-944
-924
-897
-864
-832
-801
-768
-739
-713
-710
-757
-813
-861
-898
-915
-924
-929
-937
-950
-967
-979
-989
-998
-1006
-1009
-1011
-1012
-1011
-1008
-1003
-993
-981
-972
-965
-963
-960
-958
-957
-954
-948
-944
-941
-940
-941
-944
-946
-947
-946
-944
-942
-938
-933
-929
-928
-930
-932
-936
-938
-938
-936
-932
-930
-930
-929
-932
-934
-936
-937
-937
-933
-926
-925
-924
-922
-926
-927
-929
-931
-930
-925
-921
-917
-918
-919
-920
-922
-924
-926
-925
-921
-916
-911
-907
-905
-904
-907
-907
-907
-905
-901
-897
-895
-892
-892
-893
-894
-892
-891
-888
-885
-880
-875
-875
-876
-878
-878
-878
-878
-876
-872
-868
-867
-866
-868
-869
-871
-873
-873
-873
-871
-868
-869
-868
-871
-878
-883
-884
-887
-885
-881
-879
-879
-883
-890
-897
-902
-906
-907
-908
-909
-908
-907
-909
-915
-922
-927
-930
-933
-932
-930
-928
-927
-927
-931
-934
-937
-938
-938
-937
-935
-932
-931
-932
-935
-939
-943
-945
-944
-943
-941
-935
-930
-933
-938
-941
-942
-942
-941
-940
-937
-934
-934
-935
-936
-936
-938
-939
-939
-937
-934
-932
-932
-932
-936
-939
-941
-942
-941
-940
-938
-935
-934
-935
-938
-940
-943
-944
-944
-943
-941
-938
-939
-942
-943
-945
-946
-948
-949
-947
-944
-940
-941
-943
-944
-948
-950
-949
-946
-943
-943
-941
-942
-943
-945
-948
-951
-951
-949
-947
-945
-943
-942
-943
-947
-951
-953
-953
-953
-949
-946
-944
-944
-946
-950
-952
-953
-955
-955
-952
-947
-944
-945
-947
-951
-956
-961
-961
-955
-949
-944
-943
-943
-947
-955
-955
-955
-954
-954
-950
-948
-946
-947
-950
-951
-954
-957
-956
-954
-952
-949
-947
-947
-949
-952
-955
-956
-956
-955
-953
-951
-949
-950
-952
-954
-958
-960
-961
-957
-949
-941
-936
-933
-937
-940
-942
-945
-946
-945
-943
-941
-942
-941
-943
-942
-940
-939
-937
-935
-932
-929
-929
-933
-937
-939
-943
-944
-943
-944
-941
-939
-940
-944
-946
-949
-951
-953
-955
-954
-951
-949
-950
-953
-958
-961
-961
-963
-963
-961
-958
-951
-948
-950
-954
-957
-959
-960
-958
-955
-952
-952
-951
-951
-956
-958
-961
-961
-959
-957
-954
-951
-948
-948
-948
-950
-952
-952
-952
-948
-931
-906
-876
-847
-820
-790
-765
-743
-729
-767
-820
-863
-900
-920
-923
-925
-932
-942
-958
-970
-978
-988
-997
-1003
-1009
-1012
-1013
-1015
-1012
-1005
-994
-981
-972
-968
-965
-961
-958
-957
-954
-949
-946
-942
-939
-941
-944
-945
-945
-947
-946
-943
-942
-941
-939
-939
-939
-938
-937
-939
-939
-937
-933
-930
-930
-931
-934
-937
-937
-936
-933
-930
-927
-926
-927
-928
-932
-933
-934
-932
-929
-928
-925
-922
-922
-924
-926
-927
-927
-926
-925
-920
-917
-915
-916
-919
-920
-921
-921
-917
-911
-906
-902
-901
-899
-901
-903
-904
-904
-902
-897
-891
-888
-885
-885
-887
-889
-890
-892
-892
-887
-883
-878
-876
-878
-880
-882
-885
-887
-887
-883
-880
-878
-878
-882
-884
-889
-892
-896
-899
-896
-894
-895
-897
-899
-904
-909
-917
-921
-922
-921
-917
-916
-919
-921
-926
-932
-936
-938
-938
-938
-937
-935
-935
-937
-941
-945
-947
-949
-949
-946
-943
-940
-940
-941
-945
-947
-949
-948
-949
-948
-947
-945
-942
-944
-945
-948
-951
-952
-951
-945
-941
-941
-941
-943
-946
-950
-950
-948
-947
-944
-941
-940
-941
-943
-944
-946
-948
-948
-947
-945
-941
-940
-940
-942
-944
-947
-949
-951
-949
-945
-945
-946
-945
-947
-950
-951
-952
-953
-953
-949
-946
-943
-942
-945
-950
-955
-955
-955
-951
-948
-946
-944
-945
-947
-950
-953
-954
-954
-953
-949
-945
-943
-945
-948
-952
-953
-955
-955
-952
-949
-946
-945
-945
-948
-950
-954
-959
-958
-956
-952
-949
-950
-953
-951
-952
-954
-954
-957
-957
-951
-947
-945
-946
-949
-952
-954
-956
-956
-953
-951
-949
-948
-949
-950
-952
-955
-956
-956
-953
-949
-949
-945
-945
-951
-953
-957
-958
-955
-951
-945
-939
-936
-937
-938
-943
-947
-947
-944
-942
-939
-938
-937
-936
-937
-939
-939
-938
-937
-933
-930
-927
-928
-932
-937
-939
-942
-943
-942
-940
-939
-937
-940
-943
-946
-949
-952
-952
-952
-951
-949
-947
-947
-948
-953
-957
-958
-958
-960
-959
-957
-954
-952
-952
-955
-961
-962
-961
-958
-953
-951
-948
-949
-952
-956
-959
-959
-960
-958
-956
-951
-947
-947
-948
-948
-948
-951
-951
-950
-948
-936
-916
-889
-858
-828
-797
-765
-739
-717
-728
-781
-831
-873
-909
-921
-925
-931
-939
-953
-970
-979
-990
-1001
-1008
-1011
-1015
-1015
-1009
-1004
-999
-991
-979
-970
-964
-961
-959
-957
-955
-950
-944
-939
-937
-936
-938
-941
-942
-942
-941
-939
-934
-931
-928
-929
-931
-933
-934
-936
-936
-933
-929
-925
-922
-923
-926
-929
-932
-932
-931
-929
-926
-922
-918
-917
-920
-921
-924
-925
-924
-921
-917
-914
-911
-912
-915
-915
-918
-919
-917
-914
-909
-905
-902
-902
-905
-908
-908
-908
-906
-902
-897
-892
-889
-889
-891
-891
-892
-890
-888
-885
-882
-877
-874
-873
-873
-875
-877
-875
-872
-869
-866
-861
-860
-861
-865
-867
-868
-867
-867
-864
-863
-860
-860
-863
-869
-873
-875
-878
-881
-879
-876
-877
-880
-885
-890
-896
-900
-902
-904
-904
-903
-902
-904
-911
-916
-920
-923
-926
-927
-925
-923
-924
-924
-926
-930
-936
-936
-937
-934
-930
-927
-926
-927
-931
-937
-939
-939
-939
-938
-934
-930
-928
-929
-931
-933
-935
-938
-936
-935
-933
-929
-927
-927
-931
-935
-938
-938
-939
-937
-933
-931
-930
-930
-931
-932
-936
-941
-940
-937
-933
-930
-929
-930
-934
-937
-939
-941
-941
-938
-934
-933
-931
-931
-935
-938
-940
-941
-943
-940
-936
-933
-932
-934
-937
-940
-943
-944
-943
-940
-937
-935
-934
-936
-939
-943
-944
-945
-946
-944
-941
-938
-937
-935
-937
-940
-942
-944
-946
-943
-940
-937
-936
-939
-940
-942
-944
-945
-944
-941
-936
-934
-934
-936
-939
-944
-945
-945
-944
-941
-938
-935
-934
-935
-939
-944
-945
-946
-944
-941
-938
-937
-937
-939
-943
-946
-948
-945
-943
-939
-937
-935
-935
-937
-940
-945
-947
-945
-945
-941
-937
-936
-936
-938
-941
-943
-944
-944
-943
-940
-937
-934
-932
-932
-932
-933
-933
-935
-934
-931
-926
-923
-923
-927
-930
-933
-935
-934
-932
-927
-925
-921
-918
-918
-920
-925
-929
-930
-928
-928
-924
-922
-926
-930
-933
-937
-941
-940
-936
-933
-930
-931
-933
-938
-942
-943
-945
-947
-944
-940
-938
-937
-938
-941
-942
-945
-947
-946
-944
-940
-938
-938
-938
-941
-945
-946
-946
-947
-945
-941
-936
-934
-937
-941
-941
-942
-941
-939
-936
-929
-926
-928
-925
-913
-890
-862
-831
-798
-762
-730
-705
-700
-748
-808
-855
-893
-911
-912
-912
-914
-923
-945
-961
-976
-989
-996
-1000
-1003
-1001
-995
-989
-983
-979
-976
-969
-964
-959
-953
-946
-938
-931
-929
-928
-930
-933
-934
-934
-933
-930
-927
-922
-921
-924
-925
-927
-929
-929
-927
-924
-921
-919
-919
-920
-923
-926
-926
-924
-922
-917
-913
-913
-913
-915
-918
-918
-918
-919
-917
-914
-910
-907
-908
-908
-910
-913
-915
-914
-911
-908
-904
-901
-900
-902
-904
-905
-905
-905
-901
-897
-893
-889
-887
-887
-889
-892
-895
-894
-892
-887
-879
-875
-871
-871
-874
-876
-879
-877
-873
-868
-864
-859
-860
-862
-863
-865
-865
-865
-863
-860
-857
-855
-857
-860
-863
-867
-869
-870
-871
-869
-867
-867
-869
-874
-881
-887
-890
-892
-893
-894
-894
-894
-895
-899
-905
-910
-912
-914
-914
-912
-910
-912
-913
-918
-922
-923
-929
-929
-927
-923
-921
-921
-923
-924
-928
-932
-934
-933
-931
-928
-923
-924
-925
-928
-930
-932
-933
-934
-931
-926
-925
-923
-924
-925
-928
-932
-933
-933
-930
-927
-925
-924
-926
-930
-934
-935
-934
-930
-928
-924
-922
-922
-925
-928
-932
-934
-935
-934
-931
-929
-927
-925
-925
-928
-931
-934
-935
-935
-934
-930
-927
-926
-928
-932
-936
-938
-939
-937
-936
-932
-930
-931
-934
-935
-936
-939
-940
-939
-938
-935
-929
-928
-931
-934
-937
-940
-942
-940
-937
-934
-933
-933
-934
-938
-941
-943
-943
-941
-938
-934
-931
-932
-933
-936
-941
-943
-942
-941
-938
-936
-932
-932
-936
-940
-942
-944
-944
-942
-938
-934
-932
-933
-935
-938
-941
-945
-944
-943
-941
-936
-931
-932
-936
-939
-941
-943
-943
-941
-938
-934
-932
-933
-936
-940
-942
-944
-944
-943
-940
-935
-932
-932
-933
-934
-935
-933
-931
-928
-925
-922
-922
-924
-925
-930
-934
-935
-932
-928
-922
-917
-915
-914
-915
-919
-922
-925
-928
-926
-924
-919
-917
-919
-923
-927
-932
-936
-937
-934
-929
-926
-927
-929
-931
-937
-942
-943
-942
-938
-936
-933
-933
-935
-938
-941
-943
-945
-945
-942
-939
-936
-936
-938
-940
-943
-944
-944
-944
-941
-938
-933
-933
-934
-937
-939
-941
-941
-940
-934
-929
-926
-924
-926
-929
-925
-908
-882
-849
-813
-775
-740
-714
-695
-709
-768
-824
-867
-899
-906
-903
-905
-913
-930
-951
-969
-983
-994
-997
-996
-993
-990
-987
-987
-988
-984
-976
-968
-959
-949
-940
-935
-933
-930
-929
-929
-932
-932
-929
-926
-923
-920
-919
-921
-924
-926
-928
-928
-925
-921
-916
-914
-914
-915
-919
-922
-922
-922
-918
-914
-910
-909
-909
-910
-912
-916
-916
-914
-911
-909
-906
-903
-903
-906
-909
-911
-910
-909
-908
-904
-900
-897
-896
-897
-901
-902
-903
-901
-898
-895
-891
-887
-887
-890
-893
-893
-892
-892
-887
-878
-873
-870
-869
-869
-872
-873
-872
-872
-867
-862
-858
-853
-853
-856
-857
-858
-860
-859
-855
-851
-849
-847
-848
-851
-852
-858
-859
-859
-857
-855
-854
-855
-860
-865
-871
-876
-879
-881
-881
-878
-880
-883
-886
-891
-896
-899
-900
-901
-900
-899
-899
-902
-905
-909
-914
-917
-918
-918
-917
-914
-914
-915
-917
-920
-922
-926
-926
-925
-924
-920
-918
-918
-917
-919
-922
-927
-928
-926
-922
-918
-916
-919
-920
-924
-925
-926
-928
-928
-925
-921
-918
-916
-918
-921
-924
-927
-928
-927
-925
-923
-920
-919
-921
-924
-926
-928
-931
-929
-925
-921
-920
-920
-923
-928
-930
-931
-931
-930
-930
-926
-923
-924
-926
-931
-936
-938
-940
-936
-933
-928
-926
-926
-929
-932
-933
-934
-935
-934
-932
-930
-929
-930
-931
-933
-937
-939
-939
-934
-931
-929
-928
-929
-933
-936
-938
-940
-940
-938
-934
-931
-931
-931
-934
-937
-940
-943
-943
-941
-938
-935
-934
-933
-934
-937
-940
-942
-940
-936
-933
-931
-931
-934
-936
-938
-940
-944
-943
-939
-936
-933
-932
-932
-935
-940
-942
-943
-943
-941
-938
-936
-935
-936
-938
-941
-943
-944
-944
-942
-940
-937
-936
-938
-943
-947
-948
-948
-944
-939
-935
-930
-926
-925
-925
-928
-931
-933
-933
-929
-923
-921
-923
-925
-927
-930
-930
-927
-924
-919
-915
-912
-912
-916
-921
-926
-927
-927
-926
-926
-923
-922
-924
-929
-934
-936
-938
-939
-938
-935
-932
-931
-932
-931
-934
-938
-940
-940
-939
-935
-935
-934
-933
-934
-938
-942
-945
-944
-941
-938
-936
-934
-935
-937
-939
-942
-944
-944
-941
-938
-935
-932
-932
-935
-936
-938
-936
-937
-936
-933
-931
-926
-911
-888
-856
-822
-785
-747
-716
-689
-683
-731
-793
-845
-885
-903
-908
-912
-919
-931
-949
-963
-977
-989
-998
-1001
-1003
-1002
-998
-992
-985
-976
-966
-959
-956
-952
-947
-943
-938
-932
-927
-925
-925
-926
-928
-930
-930
-930
-929
-926
-923
-922
-921
-921
-921
-922
-922
-921
-919
-916
-914
-913
-913
-915
-917
-917
-919
-917
-912
-909
-906
-904
-906
-908
-911
-914
-914
-912
-907
-903
-901
-901
-902
-903
-905
-907
-908
-907
-903
-898
-895
-895
-895
-898
-900
-902
-901
-897
-891
-886
-882
-879
-878
-881
-882
-882
-882
-879
-874
-870
-866
-863
-863
-863
-865
-866
-864
-863
-859
-854
-850
-849
-850
-851
-854
-857
-856
-854
-850
-847
-845
-845
-848
-851
-857
-860
-862
-864
-864
-861
-861
-862
-868
-874
-879
-884
-885
-882
-880
-879
-881
-885
-891
-895
-900
-904
-906
-907
-906
-905
-904
-905
-907
-912
-916
-919
-919
-919
-916
-913
-912
-913
-915
-918
-921
-923
-923
-920
-916
-913
-912
-914
-916
-919
-920
-922
-924
-922
-917
-914
-916
-916
-916
-919
-922
-923
-922
-919
-917
-914
-913
-915
-917
-920
-923
-923
-923
-919
-918
-916
-915
-916
-920
-922
-924
-926
-926
-923
-921
-918
-917
-919
-923
-925
-927
-928
-926
-923
-919
-917
-916
-920
-924
-927
-928
-930
-930
-927
-923
-921
-920
-922
-926
-928
-930
-930
-929
-928
-924
-923
-922
-924
-928
-929
-929
-929
-928
-928
-926
-923
-921
-923
-927
-929
-930
-930
-930
-929
-924
-922
-921
-922
-926
-929
-933
-932
-929
-927
-924
-921
-921
-923
-926
-930
-933
-935
-934
-930
-926
-920
-922
-925
-928
-931
-932
-932
-931
-928
-926
-925
-926
-929
-931
-934
-935
-933
-931
-928
-925
-923
-923
-926
-929
-933
-935
-934
-932
-929
-926
-923
-925
-928
-931
-934
-934
-932
-930
-926
-919
-915
-915
-917
-920
-924
-925
-925
-925
-921
-920
-917
-916
-916
-916
-919
-922
-920
-917
-912
-911
-911
-912
-915
-918
-922
-923
-925
-925
-924
-921
-922
-922
-924
-928
-932
-934
-934
-935
-932
-929
-929
-930
-932
-935
-938
-940
-941
-937
-935
-930
-928
-931
-935
-937
-940
-940
-937
-936
-937
-934
-932
-930
-932
-936
-938
-939
-938
-935
-932
-930
-929
-929
-929
-930
-931
-935
-934
-922
-898
-868
-836
-802
-769
-744
-726
-709
-733
-786
-830
-865
-891
-898
-898
-904
-916
-932
-945
-954
-964
-972
-975
-982
-989
-993
-992
-990
-987
-977
-967
-955
-947
-942
-940
-939
-938
-936
-932
-927
-923
-920
-920
-924
-925
-925
-926
-928
-924
-921
-917
-915
-915
-918
-921
-922
-923
-921
-920
-918
-914
-913
-912
-914
-917
-918
-918
-917
-915
-913
-910
-906
-906
-908
-911
-912
-914
-913
-910
-908
-903
-901
-902
-903
-905
-906
-907
-907
-905
-901
-898
-896
-895
-898
-901
-899
-898
-896
-893
-889
-885
-882
-881
-883
-885
-883
-883
-883
-879
-873
-869
-868
-866
-868
-870
-871
-870
-869
-866
-862
-858
-859
-859
-860
-862
-863
-865
-864
-863
-860
-858
-859
-861
-865
-869
-873
-875
-876
-878
-877
-876
-880
-882
-886
-892
-894
-896
-899
-898
-896
-896
-898
-900
-906
-911
-914
-915
-914
-914
-915
-913
-913
-915
-919
-922
-924
-925
-924
-921
-918
-916
-915
-918
-920
-924
-927
-927
-925
-923
-921
-918
-918
-919
-921
-923
-923
-924
-925
-923
-918
-916
-919
-919
-921
-924
-927
-928
-926
-924
-920
-916
-916
-920
-922
-924
-926
-927
-924
-922
-920
-917
-918
-921
-924
-926
-927
-927
-926
-924
-921
-920
-921
-924
-927
-928
-929
-930
-929
-925
-925
-924
-924
-927
-929
-932
-933
-933
-933
-930
-928
-925
-926
-928
-930
-931
-933
-933
-930
-929
-928
-924
-923
-925
-930
-933
-934
-933
-930
-929
-927
-925
-925
-928
-932
-933
-934
-934
-932
-929
-927
-924
-925
-928
-932
-935
-934
-934
-932
-929
-926
-926
-927
-929
-932
-934
-935
-934
-931
-928
-926
-926
-926
-928
-931
-935
-936
-936
-933
-929
-927
-926
-928
-930
-932
-933
-934
-934
-932
-928
-924
-921
-920
-922
-921
-920
-921
-920
-917
-912
-911
-911
-914
-918
-920
-921
-920
-918
-914
-909
-906
-904
-905
-910
-915
-917
-920
-918
-915
-913
-910
-912
-917
-923
-926
-928
-928
-925
-924
-923
-920
-922
-926
-928
-931
-933
-934
-933
-931
-928
-926
-925
-927
-930
-933
-934
-934
-934
-931
-929
-926
-926
-928
-931
-933
-935
-936
-935
-932
-929
-926
-925
-928
-931
-933
-933
-931
-928
-922
-919
-919
-917
-903
-882
-852
-819
-781
-742
-706
-678
-667
-710
-773
-826
-870
-890
-895
-898
-904
-915
-935
-952
-966
-979
-988
-992
-993
-990
-985
-979
-974
-968
-962
-955
-950
-946
-940
-933
-926
-921
-918
-916
-919
-922
-922
-921
-920
-918
-914
-907
-906
-907
-910
-913
-914
-915
-914
-911
-907
-903
-900
-903
-905
-906
-909
-910
-908
-906
-903
-899
-898
-899
-899
-901
-906
-905
-902
-900
-897
-892
-890
-891
-895
-896
-897
-899
-898
-895
-890
-886
-884
-883
-886
-888
-888
-888
-885
-880
-875
-871
-871
-870
-871
-871
-872
-871
-867
-862
-857
-853
-853
-852
-852
-854
-856
-853
-851
-846
-843
-840
-838
-838
-840
-842
-844
-845
-843
-839
-836
-834
-832
-835
-840
-842
-845
-848
-848
-848
-847
-847
-848
-853
-858
-865
-867
-872
-871
-872
-873
-873
-875
-881
-887
-891
-895
-898
-897
-897
-894
-894
-897
-901
-905
-908
-910
-911
-912
-910
-907
-906
-907
-910
-913
-916
-918
-918
-916
-912
-909
-906
-906
-909
-912
-915
-916
-916
-916
-913
-910
-908
-906
-909
-913
-915
-916
-915
-914
-911
-907
-905
-906
-908
-909
-915
-919
-919
-918
-914
-910
-908
-910
-913
-917
-920
-921
-921
-918
-914
-912
-911
-912
-916
-920
-922
-924
-922
-920
-917
-914
-911
-914
-917
-919
-922
-923
-923
-922
-919
-916
-916
-917
-919
-923
-926
-926
-925
-922
-920
-916
-914
-916
-920
-924
-926
-926
-925
-922
-920
-919
-916
-917
-922
-926
-927
-929
-928
-924
-921
-919
-918
-919
-923
-925
-924
-925
-924
-922
-920
-919
-918
-920
-923
-926
-929
-929
-927
-925
-921
-917
-918
-920
-923
-925
-927
-929
-928
-925
-921
-918
-917
-918
-921
-924
-926
-929
-927
-921
-919
-918
-917
-919
-922
-925
-926
-926
-924
-920
-912
-906
-905
-907
-910
-914
-916
-916
-916
-914
-912
-910
-909
-907
-908
-909
-912
-910
-907
-903
-901
-901
-902
-907
-910
-912
-913
-914
-913
-912
-913
-914
-914
-914
-916
-921
-924
-924
-925
-923
-920
-920
-921
-922
-926
-929
-931
-931
-929
-926
-923
-922
-924
-927
-930
-930
-931
-930
-929
-926
-923
-921
-922
-925
-928
-931
-932
-932
-931
-926
-923
-919
-919
-920
-922
-925
-927
-928
-917
-893
-862
-827
-792
-759
-727
-703
-684
-695
-752
-804
-844
-877
-886
-891
-899
-909
-926
-944
-956
-965
-972
-976
-980
-985
-984
-985
-986
-982
-972
-959
-946
-939
-935
-933
-932
-932
-931
-928
-921
-916
-914
-913
-914
-917
-920
-921
-921
-919
-914
-912
-910
-909
-911
-913
-915
-917
-918
-916
-912
-908
-906
-906
-906
-908
-910
-910
-912
-910
-908
-905
-903
-902
-904
-906
-907
-908
-907
-906
-904
-899
-897
-896
-898
-901
-902
-902
-900
-899
-895
-891
-888
-886
-889
-891
-893
-893
-892
-888
-883
-879
-876
-875
-876
-876
-879
-878
-876
-873
-869
-865
-862
-860
-860
-862
-863
-862
-861
-858
-855
-852
-849
-850
-852
-854
-856
-856
-856
-854
-852
-850
-850
-853
-856
-860
-863
-868
-869
-869
-869
-867
-870
-874
-879
-884
-888
-892
-893
-894
-894
-893
-895
-898
-902
-908
-912
-914
-914
-915
-913
-911
-911
-913
-917
-920
-922
-923
-923
-920
-919
-916
-916
-918
-921
-922
-925
-926
-925
-923
-921
-918
-919
-921
-922
-923
-926
-927
-926
-924
-921
-919
-919
-920
-921
-924
-927
-928
-926
-922
-920
-917
-917
-918
-921
-923
-926
-927
-926
-924
-921
-920
-920
-921
-926
-928
-929
-929
-929
-926
-923
-922
-923
-925
-928
-930
-933
-933
-933
-930
-927
-926
-926
-927
-931
-933
-935
-935
-933
-930
-928
-928
-929
-930
-932
-934
-936
-936
-934
-931
-928
-928
-928
-929
-931
-935
-938
-939
-937
-934
-930
-929
-930
-931
-932
-937
-938
-939
-936
-932
-930
-930
-930
-932
-935
-938
-938
-939
-938
-935
-932
-931
-932
-934
-938
-939
-941
-940
-938
-935
-932
-931
-932
-935
-938
-939
-940
-939
-931
-924
-922
-919
-918
-921
-925
-926
-928
-929
-927
-926
-922
-918
-915
-916
-918
-920
-919
-921
-921
-920
-918
-917
-918
-922
-924
-928
-930
-932
-932
-930
-929
-927
-929
-931
-935
-938
-940
-942
-941
-938
-936
-935
-936
-938
-941
-942
-943
-944
-942
-938
-936
-937
-939
-941
-943
-945
-944
-944
-942
-938
-936
-937
-937
-938
-939
-943
-942
-942
-940
-935
-932
-930
-932
-933
-936
-940
-933
-915
-886
-854
-820
-786
-756
-734
-718
-726
-779
-829
-864
-893
-902
-901
-904
-915
-930
-948
-962
-972
-978
-980
-984
-987
-990
-991
-993
-992
-988
-980
-968
-957
-949
-942
-940
-939
-937
-936
-938
-937
-933
-929
-926
-926
-927
-929
-931
-932
-932
-929
-926
-923
-921
-920
-922
-925
-926
-926
-926
-923
-921
-919
-918
-918
-919
-921
-923
-923
-921
-919
-917
-914
-912
-909
-911
-914
-917
-917
-917
-915
-911
-906
-905
-907
-909
-909
-910
-911
-910
-908
-904
-900
-897
-896
-897
-898
-900
-899
-897
-894
-890
-886
-882
-882
-883
-884
-885
-884
-884
-879
-876
-871
-868
-868
-869
-870
-870
-871
-871
-869
-865
-863
-860
-859
-862
-864
-866
-868
-868
-867
-865
-864
-865
-868
-872
-875
-880
-882
-883
-884
-884
-885
-886
-889
-893
-901
-904
-906
-907
-907
-908
-907
-909
-911
-915
-919
-922
-925
-926
-924
-922
-920
-920
-921
-925
-928
-930
-930
-930
-928
-927
-924
-923
-925
-928
-930
-931
-931
-930
-928
-924
-923
-924
-926
-927
-929
-931
-931
-930
-928
-925
-922
-922
-922
-923
-924
-927
-930
-928
-924
-930
-931
-928
-929
-932
-934
-934
-935
-935
-932
-930
-927
-929
-931
-935
-937
-938
-938
-936
-933
-931
-930
-931
-934
-936
-938
-940
-941
-940
-939
-937
-935
-936
-938
-941
-942
-943
-943
-942
-939
-937
-936
-936
-939
-942
-944
-945
-945
-942
-939
-936
-935
-937
-939
-942
-944
-945
-946
-944
-941
-940
-939
-939
-941
-943
-944
-945
-945
-943
-941
-939
-937
-937
-941
-942
-943
-945
-946
-943
-939
-938
-938
-939
-941
-944
-947
-948
-947
-944
-941
-939
-937
-939
-941
-942
-941
-938
-935
-929
-926
-925
-924
-926
-928
-929
-931
-935
-934
-931
-928
-923
-921
-921
-922
-924
-925
-927
-927
-924
-925
-923
-923
-926
-928
-931
-934
-937
-939
-940
-937
-935
-935
-936
-940
-942
-944
-948
-949
-945
-941
-940
-942
-944
-946
-948
-950
-951
-950
-947
-945
-943
-944
-945
-946
-947
-948
-948
-947
-948
-945
-944
-945
-945
-947
-950
-951
-950
-949
-944
-940
-937
-937
-938
-941
-946
-942
-925
-898
-862
-824
-784
-745
-715
-693
-693
-742
-802
-852
-890
-900
-904
-912
-922
-941
-966
-984
-995
-1005
-1009
-1006
-1005
-1003
-1001
-1001
-1000
-992
-980
-968
-960
-953
-946
-942
-944
-946
-945
-944
-943
-940
-936
-934
-931
-932
-935
-935
-937
-937
-934
-932
-929
-926
-924
-925
-928
-930
-932
-933
-931
-929
-924
-922
-920
-920
-923
-928
-929
-928
-927
-926
-922
-920
-918
-918
-919
-921
-923
-922
-921
-919
-916
-913
-911
-913
-914
-913
-912
-913
-912
-908
-907
-903
-902
-902
-902
-902
-902
-901
-900
-894
-891
-888
-887
-887
-888
-887
-887
-885
-880
-879
-874
-871
-867
-868
-871
-874
-874
-874
-872
-867
-862
-859
-858
-859
-862
-865
-869
-871
-869
-866
-867
-866
-867
-871
-877
-880
-884
-886
-888
-890
-890
-891
-896
-900
-905
-910
-914
-917
-917
-915
-914
-916
-921
-924
-926
-932
-936
-937
-937
-936
-935
-936
-938
-939
-937
-936
-940
-941
-939
-938
-935
-933
-934
-936
-938
-941
-942
-941
-939
-938
-933
-931
-932
-934
-938
-940
-940
-939
-939
-936
-933
-931
-932
-934
-938
-941
-942
-941
-940
-938
-935
-935
-938
-940
-942
-945
-946
-945
-943
-941
-938
-937
-939
-941
-945
-945
-947
-946
-942
-942
-941
-940
-941
-943
-947
-948
-951
-952
-949
-946
-944
-943
-944
-948
-951
-953
-955
-954
-952
-951
-949
-948
-949
-950
-951
-954
-957
-958
-955
-952
-949
-949
-950
-952
-955
-961
-962
-961
-956
-951
-948
-949
-950
-952
-954
-957
-959
-959
-955
-953
-952
-951
-951
-954
-956
-959
-961
-959
-957
-955
-953
-953
-954
-956
-958
-959
-960
-961
-959
-957
-956
-956
-956
-958
-960
-960
-958
-954
-949
-946
-944
-944
-945
-948
-951
-950
-950
-951
-949
-946
-944
-945
-944
-944
-946
-945
-946
-944
-941
-938
-937
-939
-940
-945
-949
-948
-949
-950
-952
-952
-950
-948
-951
-954
-957
-961
-963
-962
-960
-958
-958
-958
-960
-963
-965
-966
-966
-964
-961
-957
-958
-960
-962
-964
-966
-966
-965
-962
-960
-958
-958
-959
-962
-966
-967
-967
-967
-964
-960
-956
-953
-952
-953
-956
-956
-958
-956
-940
-916
-885
-852
-821
-790
-767
-750
-743
-787
-840
-881
-912
-928
-928
-932
-940
-951
-969
-982
-992
-1001
-1004
-1008
-1014
-1016
-1016
-1017
-1015
-1014
-1003
-991
-980
-974
-969
-967
-965
-963
-960
-959
-956
-953
-949
-948
-951
-953
-955
-956
-955
-954
-950
-947
-946
-944
-946
-948
-949
-950
-948
-947
-944
-939
-935
-937
-939
-942
-942
-945
-946
-943
-940
-936
-934
-933
-934
-936
-938
-943
-943
-939
-935
-931
-929
-928
-930
-932
-933
-933
-933
-930
-925
-923
-920
-920
-921
-923
-925
-925
-923
-921
-916
-909
-905
-905
-904
-904
-907
-907
-906
-902
-896
-895
-893
-892
-893
-895
-893
-893
-892
-887
-884
-881
-880
-880
-881
-886
-888
-888
-888
-886
-886
-884
-884
-888
-891
-894
-898
-901
-903
-904
-905
-906
-907
-908
-912
-917
-921
-927
-926
-925
-924
-923
-927
-931
-934
-940
-942
-946
-947
-947
-945
-943
-942
-943
-946
-948
-951
-953
-955
-955
-950
-948
-947
-947
-950
-953
-955
-957
-955
-953
-950
-947
-947
-949
-951
-953
-954
-954
-956
-954
-953
-949
-947
-947
-948
-949
-952
-953
-953
-951
-947
-942
-942
-942
-947
-951
-954
-957
-955
-953
-949
-947
-946
-947
-950
-952
-954
-955
-956
-953
-950
-948
-949
-950
-954
-958
-959
-959
-958
-956
-954
-952
-952
-951
-953
-957
-959
-961
-962
-960
-956
-952
-952
-955
-958
-961
-963
-963
-960
-958
-955
-957
-956
-957
-961
-963
-962
-961
-962
-961
-959
-956
-954
-959
-961
-964
-964
-965
-963
-960
-958
-957
-956
-958
-961
-964
-967
-969
-967
-962
-959
-958
-958
-959
-961
-964
-964
-963
-962
-959
-957
-957
-958
-961
-965
-969
-968
-967
-964
-962
-959
-958
-958
-959
-961
-963
-965
-964
-958
-951
-946
-943
-946
-950
-952
-953
-953
-954
-954
-953
-951
-949
-947
-947
-947
-947
-948
-946
-945
-943
-944
-946
-947
-946
-950
-953
-956
-955
-955
-954
-954
-952
-953
-956
-959
-961
-963
-964
-963
-961
-959
-960
-962
-964
-966
-969
-971
-970
-967
-965
-962
-960
-960
-963
-967
-968
-969
-969
-966
-963
-959
-958
-960
-964
-966
-970
-971
-969
-968
-967
-961
-960
-957
-956
-957
-959
-961
-958
-940
-912
-880
-850
-817
-786
-761
-741
-736
-780
-834
-875
-910
-928
-931
-936
-943
-957
-978
-990
-1001
-1010
-1014
-1015
-1017
-1021
-1022
-1020
-1019
-1014
-1003
-991
-981
-974
-970
-966
-967
-966
-962
-959
-956
-952
-951
-951
-951
-953
-955
-957
-955
-953
-952
-947
-944
-945
-947
-949
-949
-950
-950
-947
-945
-943
-940
-942
-944
-944
-944
-945
-946
-944
-940
-935
-932
-933
-935
-937
-938
-939
-938
-934
-932
-930
-929
-929
-929
-930
-931
-929
-929
-928
-924
-921
-917
-920
-921
-921
-921
-922
-919
-916
-911
-906
-906
-905
-904
-905
-906
-906
-906
-903
-900
-894
-890
-886
-887
-891
-890
-888
-887
-884
-880
-878
-877
-877
-878
-881
-884
-886
-885
-883
-879
-878
-879
-882
-885
-889
-894
-897
-899
-901
-900
-898
-903
-907
-912
-916
-920
-923
-924
-925
-924
-924
-925
-928
-932
-938
-947
-950
-950
-946
-942
-939
-941
-944
-948
-951
-954
-955
-954
-951
-948
-948
-946
-949
-952
-953
-955
-955
-954
-952
-948
-946
-944
-947
-951
-953
-955
-955
-954
-951
-949
-948
-948
-949
-950
-953
-955
-956
-955
-952
-950
-947
-945
-947
-950
-954
-956
-957
-956
-953
-949
-946
-945
-950
-953
-955
-958
-959
-957
-952
-949
-950
-948
-951
-955
-956
-957
-958
-957
-955
-954
-953
-953
-956
-958
-960
-959
-960
-959
-956
-957
-958
-957
-958
-959
-960
-963
-962
-960
-958
-957
-955
-956
-958
-963
-966
-966
-964
-964
-963
-960
-958
-958
-961
-963
-964
-964
-965
-962
-960
-959
-958
-959
-960
-962
-964
-963
-963
-965
-963
-963
-963
-962
-964
-967
-969
-968
-965
-963
-962
-959
-959
-961
-962
-964
-966
-967
-967
-965
-962
-961
-961
-962
-963
-965
-965
-966
-966
-964
-961
-959
-958
-960
-963
-965
-967
-968
-969
-966
-961
-958
-958
-961
-961
-959
-958
-955
-954
-954
-952
-948
-946
-949
-953
-959
-961
-960
-957
-951
-946
-941
-941
-941
-943
-947
-950
-953
-952
-948
-946
-947
-948
-950
-955
-959
-963
-965
-964
-960
-957
-956
-957
-959
-965
-969
-971
-971
-969
-967
-964
-964
-965
-966
-967
-970
-970
-969
-969
-966
-965
-965
-967
-967
-968
-968
-970
-969
-968
-967
-965
-964
-963
-967
-968
-970
-971
-969
-966
-962
-958
-956
-956
-959
-957
-942
-918
-886
-850
-811
-772
-740
-717
-713
-765
-829
-881
-918
-932
-933
-933
-940
-954
-977
-998
-1014
-1024
-1029
-1028
-1025
-1021
-1019
-1018
-1018
-1014
-1006
-998
-988
-981
-972
-965
-961
-960
-960
-961
-962
-961
-960
-957
-953
-951
-951
-951
-953
-955
-957
-958
-956
-952
-946
-944
-944
-945
-947
-949
-950
-952
-949
-947
-943
-939
-937
-937
-940
-943
-944
-945
-943
-941
-941
-937
-936
-936
-938
-940
-940
-939
-938
-935
-934
-931
-929
-929
-931
-932
-934
-935
-932
-926
-920
-915
-914
-914
-915
-917
-917
-915
-912
-909
-906
-901
-899
-897
-897
-899
-897
-895
-890
-886
-882
-880
-878
-879
-881
-884
-886
-885
-881
-878
-875
-871
-872
-874
-878
-881
-883
-885
-884
-882
-882
-882
-883
-887
-892
-895
-900
-905
-906
-907
-907
-907
-909
-913
-918
-924
-928
-932
-932
-932
-933
-933
-934
-938
-944
-947
-949
-949
-947
-948
-947
-947
-949
-951
-952
-957
-958
-959
-957
-954
-951
-950
-951
-953
-957
-961
-963
-961
-960
-957
-952
-951
-952
-954
-956
-956
-959
-960
-956
-952
-948
-948
-950
-953
-956
-957
-958
-957
-956
-956
-954
-952
-953
-955
-956
-958
-958
-957
-957
-957
-952
-952
-954
-957
-959
-961
-962
-961
-960
-959
-958
-958
-958
-959
-962
-965
-964
-964
-961
-958
-958
-957
-956
-959
-963
-964
-964
-965
-964
-962
-959
-960
-960
-960
-962
-964
-966
-967
-964
-961
-959
-959
-961
-963
-966
-968
-968
-967
-965
-962
-960
-959
-960
-963
-967
-969
-970
-968
-966
-963
-961
-962
-963
-966
-968
-969
-968
-968
-965
-964
-962
-961
-964
-967
-968
-970
-970
-969
-968
-965
-962
-962
-965
-966
-969
-971
-971
-970
-968
-965
-963
-965
-968
-970
-973
-973
-973
-971
-969
-967
-965
-966
-966
-967
-968
-969
-970
-968
-965
-961
-958
-953
-952
-952
-956
-958
-958
-958
-956
-952
-951
-953
-958
-960
-961
-959
-956
-953
-950
-948
-944
-945
-949
-952
-956
-958
-958
-959
-958
-955
-954
-955
-960
-964
-968
-968
-969
-967
-966
-963
-963
-964
-967
-969
-971
-972
-973
-973
-970
-967
-966
-967
-971
-972
-972
-974
-972
-972
-968
-966
-968
-968
-970
-973
-974
-975
-975
-973
-969
-967
-967
-967
-969
-969
-968
-969
-970
-969
-965
-961
-950
-932
-908
-876
-844
-811
-776
-749
-727
-745
-804
-857
-902
-933
-942
-943
-945
-952
-965
-980
-992
-1005
-1020
-1027
-1031
-1031
-1030
-1026
-1021
-1016
-1012
-1003
-996
-992
-987
-981
-977
-972
-968
-965
-964
-964
-964
-964
-962
-962
-961
-957
-955
-953
-955
-956
-958
-960
-959
-957
-953
-951
-948
-947
-948
-949
-950
-950
-954
-954
-951
-948
-945
-942
-943
-945
-947
-949
-951
-950
-947
-945
-941
-939
-940
-942
-944
-946
-948
-947
-943
-938
-934
-930
-932
-933
-933
-934
-933
-932
-929
-926
-923
-921
-920
-917
-918
-919
-920
-918
-915
-909
-906
-904
-904
-904
-905
-903
-903
-901
-899
-895
-890
-889
-890
-894
-895
-899
-899
-898
-894
-890
-886
-885
-887
-891
-897
-900
-904
-904
-901
-899
-900
-900
-903
-909
-915
-919
-922
-924
-923
-922
-923
-927
-933
-935
-940
-944
-947
-948
-946
-945
-946
-946
-949
-954
-958
-962
-965
-964
-961
-958
-957
-957
-959
-962
-965
-966
-966
-966
-963
-959
-958
-957
-959
-964
-966
-966
-967
-966
-962
-958
-955
-955
-957
-961
-964
-964
-964
-963
-960
-958
-958
-959
-960
-963
-965
-966
-965
-961
-959
-958
-956
-956
-959
-963
-966
-967
-968
-966
-962
-959
-958
-959
-960
-963
-965
-967
-969
-967
-965
-962
-959
-960
-962
-966
-969
-967
-967
-967
-967
-965
-964
-964
-967
-968
-971
-972
-972
-968
-967
-965
-964
-965
-969
-971
-973
-975
-975
-972
-970
-969
-967
-968
-971
-973
-974
-976
-975
-973
-971
-970
-969
-969
-970
-971
-972
-973
-974
-973
-971
-968
-968
-970
-971
-972
-973
-974
-972
-971
-970
-968
-967
-968
-971
-975
-978
-979
-976
-975
-973
-970
-970
-972
-973
-976
-980
-980
-977
-973
-971
-968
-966
-964
-963
-963
-965
-967
-966
-964
-961
-957
-956
-960
-964
-964
-967
-965
-958
-955
-952
-949
-949
-953
-955
-958
-962
-964
-963
-962
-958
-957
-962
-964
-967
-971
-973
-972
-971
-969
-967
-968
-969
-972
-976
-979
-982
-982
-981
-979
-977
-974
-975
-976
-977
-979
-980
-977
-977
-973
-970
-969
-969
-973
-977
-980
-981
-980
-977
-974
-970
-970
-973
-973
-975
-976
-974
-972
-969
-964
-963
-964
-960
-949
-927
-897
-865
-833
-798
-768
-745
-741
-788
-845
-890
-928
-947
-947
-950
-955
-965
-982
-995
-1008
-1020
-1028
-1031
-1033
-1033
-1029
-1023
-1018
-1016
-1011
-1005
-999
-993
-987
-979
-971
-965
-963
-963
-963
-965
-968
-969
-970
-967
-963
-959
-958
-959
-960
-962
-964
-965
-965
-963
-959
-955
-954
-953
-954
-958
-961
-963
-963
-961
-955
-950
-949
-950
-953
-954
-953
-952
-952
-950
-946
-945
-944
-943
-945
-948
-950
-950
-949
-945
-940
-937
-936
-936
-938
-940
-939
-936
-936
-936
-932
-929
-926
-925
-924
-923
-924
-924
-922
-919
-914
-909
-905
-905
-908
-909
-909
-906
-903
-900
-896
-892
-891
-891
-895
-896
-895
-894
-894
-890
-887
-886
-886
-889
-891
-895
-900
-901
-902
-901
-900
-899
-904
-909
-915
-920
-922
-924
-926
-929
-929
-929
-931
-935
-940
-945
-947
-948
-949
-950
-949
-950
-951
-955
-959
-963
-965
-965
-964
-962
-959
-961
-962
-964
-967
-969
-970
-971
-968
-965
-965
-964
-964
-966
-969
-973
-974
-974
-971
-969
-966
-965
-965
-964
-968
-970
-971
-972
-970
-965
-962
-962
-961
-963
-966
-968
-968
-968
-969
-967
-964
-963
-964
-968
-970
-972
-972
-970
-968
-967
-964
-964
-967
-970
-972
-974
-975
-975
-972
-969
-967
-966
-969
-972
-975
-977
-979
-976
-974
-971
-969
-969
-969
-972
-973
-976
-977
-977
-974
-971
-969
-970
-974
-976
-978
-979
-979
-980
-978
-975
-972
-972
-973
-974
-977
-979
-981
-980
-979
-975
-974
-975
-976
-978
-980
-982
-983
-983
-979
-975
-972
-973
-975
-978
-981
-984
-985
-981
-977
-976
-974
-975
-975
-981
-984
-984
-983
-982
-980
-979
-976
-973
-976
-979
-981
-983
-984
-983
-981
-978
-975
-973
-971
-970
-971
-972
-974
-973
-970
-967
-965
-966
-970
-973
-973
-974
-972
-967
-964
-960
-959
-958
-961
-966
-970
-973
-975
-971
-969
-966
-964
-966
-971
-977
-981
-983
-982
-978
-976
-974
-973
-977
-980
-983
-987
-989
-991
-989
-985
-981
-978
-979
-983
-987
-988
-991
-989
-985
-983
-980
-979
-982
-984
-986
-989
-990
-991
-988
-984
-980
-980
-981
-982
-984
-986
-986
-983
-980
-977
-974
-972
-968
-953
-931
-899
-865
-831
-795
-762
-737
-737
-789
-851
-899
-936
-952
-957
-960
-965
-978
-995
-1013
-1029
-1043
-1050
-1050
-1047
-1043
-1038
-1033
-1031
-1025
-1018
-1011
-1005
-1000
-992
-985
-979
-974
-974
-976
-978
-979
-978
-976
-978
-976
-972
-968
-968
-968
-967
-971
-973
-972
-972
-972
-969
-965
-964
-964
-967
-969
-970
-969
-967
-962
-959
-957
-958
-959
-963
-966
-966
-965
-965
-962
-958
-953
-953
-955
-958
-959
-959
-958
-956
-951
-948
-948
-947
-947
-951
-951
-953
-951
-949
-945
-939
-933
-932
-933
-936
-936
-936
-933
-929
-925
-920
-917
-915
-915
-914
-915
-916
-914
-912
-908
-903
-901
-900
-901
-904
-905
-906
-905
-902
-899
-895
-895
-899
-902
-905
-908
-910
-911
-911
-909
-909
-912
-917
-921
-926
-928
-930
-934
-935
-935
-932
-935
-941
-944
-950
-955
-958
-961
-961
-959
-957
-956
-957
-960
-966
-970
-975
-976
-974
-972
-971
-971
-972
-974
-977
-980
-984
-983
-981
-977
-975
-973
-972
-975
-979
-980
-981
-980
-978
-975
-971
-971
-973
-974
-977
-978
-980
-980
-978
-974
-971
-971
-972
-974
-975
-977
-977
-978
-975
-972
-971
-970
-972
-975
-977
-979
-981
-980
-978
-975
-971
-971
-973
-976
-979
-983
-983
-982
-979
-977
-973
-975
-976
-980
-985
-986
-986
-983
-979
-976
-973
-976
-978
-981
-984
-985
-987
-988
-984
-979
-977
-976
-978
-982
-984
-985
-988
-986
-983
-979
-978
-978
-981
-985
-987
-988
-987
-987
-986
-980
-978
-979
-983
-987
-990
-991
-992
-991
-987
-983
-981
-981
-985
-988
-994
-995
-993
-989
-985
-980
-980
-983
-987
-990
-990
-990
-989
-988
-985
-984
-983
-984
-988
-990
-991
-991
-989
-984
-978
-972
-969
-969
-972
-974
-978
-980
-979
-979
-977
-974
-971
-973
-974
-975
-978
-977
-977
-972
-968
-967
-966
-968
-972
-976
-979
-979
-979
-978
-976
-976
-979
-980
-982
-985
-988
-990
-989
-988
-986
-984
-984
-985
-989
-992
-994
-995
-996
-993
-989
-985
-984
-985
-989
-994
-995
-995
-995
-994
-991
-985
-985
-989
-992
-995
-996
-996
-994
-991
-987
-982
-982
-983
-983
-982
-983
-986
-984
-975
-954
-925
-895
-865
-835
-806
-785
-769
-784
-835
-881
-917
-945
-957
-960
-967
-975
-988
-1005
-1013
-1023
-1029
-1034
-1040
-1046
-1049
-1049
-1048
-1045
-1036
-1024
-1012
-1004
-1003
-999
-995
-993
-992
-989
-987
-980
-976
-975
-978
-981
-983
-985
-984
-982
-977
-973
-973
-974
-975
-975
-978
-979
-978
-974
-971
-967
-964
-965
-969
-972
-973
-975
-975
-973
-969
-965
-962
-962
-964
-965
-969
-970
-970
-969
-963
-957
-952
-953
-958
-960
-962
-962
-962
-959
-955
-950
-945
-945
-948
-950
-952
-952
-949
-944
-940
-936
-935
-934
-935
-936
-935
-934
-932
-928
-924
-920
-919
-919
-921
-922
-923
-923
-922
-916
-909
-904
-901
-904
-909
-912
-913
-914
-913
-912
-911
-907
-907
-912
-918
-921
-923
-928
-930
-931
-929
-929
-930
-935
-939
-946
-951
-954
-956
-955
-954
-953
-956
-962
-969
-974
-979
-981
-981
-979
-976
-974
-974
-975
-979
-983
-988
-990
-991
-989
-986
-985
-986
-988
-992
-994
-995
-995
-996
-994
-990
-986
-985
-988
-993
-996
-998
-997
-994
-989
-988
-989
-988
-990
-994
-996
-998
-999
-997
-992
-988
-985
-987
-991
-993
-996
-997
-996
-996
-993
-989
-987
-989
-991
-993
-994
-999
-999
-994
-992
-991
-992
-991
-994
-995
-997
-1000
-1000
-999
-997
-993
-992
-994
-996
-1000
-1004
-1006
-1006
-1004
-1002
-998
-997
-996
-998
-998
-999
-1001
-1000
-997
-996
-995
-995
-996
-998
-1001
-1003
-1002
-1002
-1000
-996
-995
-996
-996
-998
-999
-1000
-1003
-1002
-1000
-996
-994
-994
-996
-997
-1001
-1003
-1003
-1005
-1004
-1001
-998
-996
-996
-997
-1000
-1002
-1003
-1002
-997
-996
-993
-992
-996
-998
-1000
-1001
-1001
-1000
-997
-995
-994
-993
-994
-998
-1002
-1002
-1002
-999
-998
-994
-992
-989
-988
-986
-987
-989
-990
-988
-984
-981
-981
-984
-986
-990
-993
-993
-989
-986
-981
-977
-975
-976
-978
-983
-987
-991
-991
-991
-988
-984
-981
-982
-986
-993
-998
-1000
-998
-995
-996
-994
-993
-995
-1000
-1004
-1006
-1007
-1008
-1005
-1005
-1000
-999
-1002
-1005
-1008
-1010
-1010
-1008
-1008
-1005
-1003
-1004
-1007
-1010
-1012
-1013
-1015
-1014
-1010
-1006
-1002
-999
-1003
-1006
-1008
-1010
-1009
-1006
-1003
-999
-997
-997
-991
-974
-949
-917
-884
-847
-811
-779
-750
-754
-810
-872
-924
-964
-980
-984
-988
-995
-1011
-1031
-1049
-1064
-1075
-1082
-1083
-1084
-1082
-1077
-1071
-1067
-1060
-1052
-1046
-1040
-1033
-1026
-1021
-1015
-1012
-1009
-1009
-1009
-1012
-1013
-1013
-1012
-1011
-1007
-1005
-1005
-1006
-1009
-1012
-1014
-1014
-1014
-1010
-1008
-1004
-1001
-1003
-1007
-1009
-1013
-1013
-1012
-1010
-1007
-1004
-1002
-1004
-1007
-1010
-1011
-1011
-1013
-1008
-1003
-1000
-998
-997
-999
-1002
-1003
-1001
-999
-996
-992
-989
-990
-993
-993
-994
-995
-995
-992
-989
-985
-979
-978
-979
-979
-981
-982
-978
-974
-970
-964
-962
-961
-960
-961
-961
-961
-960
-957
-951
-946
-946
-946
-949
-951
-952
-951
-947
-943
-939
-934
-932
-933
-936
-939
-943
-947
-948
-949
-947
-947
-947
-952
-957
-963
-968
-972
-976
-975
-972
-973
-975
-979
-984
-990
-994
-997
-998
-998
-998
-996
-997
-1000
-1006
-1012
-1014
-1017
-1014
-1012
-1010
-1008
-1007
-1009
-1013
-1016
-1018
-1018
-1018
-1016
-1012
-1008
-1006
-1007
-1012
-1014
-1016
-1016
-1018
-1015
-1011
-1009
-1007
-1008
-1012
-1015
-1016
-1017
-1017
-1012
-1009
-1007
-1008
-1010
-1014
-1017
-1020
-1021
-1022
-1019
-1016
-1016
-1014
-1013
-1014
-1018
-1019
-1019
-1019
-1017
-1014
-1012
-1013
-1015
-1018
-1020
-1020
-1020
-1020
-1018
-1014
-1012
-1012
-1015
-1019
-1020
-1023
-1025
-1024
-1021
-1017
-1014
-1014
-1016
-1018
-1022
-1026
-1025
-1023
-1021
-1017
-1016
-1017
-1019
-1022
-1025
-1025
-1025
-1023
-1021
-1020
-1018
-1018
-1021
-1023
-1025
-1027
-1027
-1024
-1020
-1018
-1018
-1019
-1021
-1024
-1025
-1028
-1028
-1026
-1023
-1020
-1014
-1014
-1018
-1024
-1024
-1025
-1026
-1025
-1022
-1018
-1017
-1019
-1021
-1023
-1026
-1029
-1029
-1025
-1022
-1020
-1018
-1019
-1022
-1025
-1028
-1028
-1028
-1025
-1019
-1014
-1011
-1008
-1009
-1011
-1014
-1015
-1015
-1013
-1010
-1010
-1008
-1010
-1011
-1011
-1011
-1011
-1011
-1007
-1003
-1000
-997
-1001
-1004
-1008
-1010
-1014
-1013
-1011
-1011
-1010
-1012
-1015
-1017
-1020
-1022
-1023
-1023
-1021
-1018
-1017
-1018
-1020
-1023
-1026
-1029
-1029
-1029
-1027
-1024
-1020
-1020
-1021
-1025
-1027
-1029
-1030
-1028
-1027
-1023
-1019
-1020
-1022
-1025
-1027
-1029
-1029
-1027
-1026
-1023
-1020
-1019
-1021
-1023
-1021
-1022
-1021
-1020
-1018
-1012
-995
-972
-942
-912
-882
-849
-820
-798
-789
-828
-883
-931
-970
-990
-994
-997
-1004
-1013
-1027
-1039
-1050
-1062
-1071
-1077
-1082
-1084
-1083
-1077
-1073
-1068
-1059
-1050
-1043
-1038
-1034
-1029
-1026
-1021
-1013
-1012
-1012
-1009
-1008
-1014
-1017
-1017
-1016
-1014
-1010
-1006
-1005
-1004
-1005
-1007
-1009
-1011
-1012
-1009
-1007
-1002
-998
-1000
-1001
-1002
-1004
-1005
-1006
-1004
-1000
-996
-992
-992
-995
-999
-1000
-1001
-999
-996
-994
-991
-990
-989
-990
-994
-995
-995
-994
-990
-987
-985
-980
-981
-984
-984
-987
-986
-984
-980
-976
-973
-970
-969
-968
-969
-968
-966
-964
-964
-960
-956
-952
-950
-949
-951
-954
-952
-952
-948
-943
-940
-935
-936
-939
-942
-944
-945
-944
-940
-936
-935
-935
-937
-940
-945
-949
-951
-953
-951
-951
-951
-954
-957
-963
-969
-973
-976
-976
-975
-972
-972
-974
-980
-983
-989
-992
-993
-994
-994
-992
-989
-990
-993
-998
-1001
-1004
-1005
-1004
-1003
-998
-997
-998
-1000
-1004
-1007
-1009
-1009
-1010
-1005
-1001
-999
-999
-1001
-1005
-1007
-1008
-1008
-1007
-1004
-1001
-997
-997
-999
-1001
-1005
-1008
-1008
-1007
-1004
-1000
-996
-997
-999
-1002
-1004
-1004
-1005
-1005
-1002
-998
-996
-997
-1000
-1003
-1004
-1007
-1008
-1005
-1002
-999
-998
-1000
-1003
-1008
-1011
-1011
-1009
-1007
-1005
-1002
-1001
-1003
-1004
-1006
-1008
-1009
-1010
-1009
-1006
-1003
-1005
-1004
-1004
-1010
-1014
-1015
-1014
-1011
-1006
-1004
-1002
-1004
-1008
-1011
-1014
-1015
-1013
-1010
-1006
-1005
-1004
-1007
-1010
-1014
-1018
-1018
-1016
-1012
-1010
-1007
-1004
-1007
-1011
-1014
-1013
-1013
-1014
-1010
-1006
-1003
-1002
-1007
-1010
-1011
-1013
-1015
-1013
-1012
-1009
-1006
-1007
-1006
-1009
-1012
-1011
-1012
-1009
-1005
-999
-995
-993
-994
-996
-999
-999
-1001
-1003
-1002
-1000
-997
-996
-995
-994
-993
-995
-997
-993
-989
-990
-990
-990
-991
-995
-997
-1000
-1001
