-743
-790
-828
-854
-857
-857
-860
-868
-885
-902
-916
-931
-939
-943
-948
-949
-947
-945
-944
-941
-933
-924
-917
-910
-904
-899
-895
-892
-889
-888
-887
-886
-887
-886
-884
-883
-882
-881
-881
-880
-880
-881
-881
-880
-880
-879
-879
-877
-875
-875
-874
-875
-876
-876
-875
-873
-871
-869
-868
-870
-872
-871
-872
-873
-872
-870
-869
-868
-867
-867
-868
-867
-867
-867
-868
-869
-865
-863
-862
-862
-862
-863
-863
-862
-862
-861
-862
-860
-858
-857
-857
-858
-859
-860
-858
-858
-857
-857
-856
-855
-856
-857
-858
-858
-857
-856
-854
-854
-854
-854
-856
-856
-856
-855
-853
-851
-849
-848
-847
-848
-850
-850
-850
-849
-849
-849
-849
-850
-851
-853
-854
-856
-858
-858
-861
-862
-864
-864
-862
-865
-869
-871
-873
-874
-873
-873
-873
-873
-875
-876
-876
-877
-878
-878
-880
-881
-880
-878
-879
-881
-882
-883
-884
-883
-881
-881
-880
-881
-880
-881
-882
-882
-883
-884
-883
-883
-883
-883
-884
-884
-884
-886
-885
-885
-884
-884
-883
-882
-883
-882
-883
-884
-885
-885
-885
-883
-883
-882
-883
-884
-885
-887
-887
-887
-886
-884
-882
-879
-877
-875
-874
-872
-870
-870
-870
-870
-870
-868
-868
-870
-870
-870
-868
-863
-859
-855
-851
-850
-851
-853
-855
-859
-862
-865
-867
-868
-871
-872
-874
-878
-879
-879
-881
-883
-884
-886
-887
-889
-890
-892
-892
-893
-894
-894
-894
-892
-892
-892
-893
-894
-895
-895
-895
-894
-893
-893
-892
-892
-892
-894
-896
-897
-897
-896
-895
-893
-892
-891
-893
-893
-895
-900
-902
-894
-876
-848
-816
-782
-747
-719
-699
-684
-698
-753
-800
-838
-868
-875
-873
-876
-882
-896
-910
-920
-932
-938
-940
-948
-953
-952
-949
-947
-943
-936
-926
-916
-908
-902
-898
-894
-893
-891
-888
-885
-884
-882
-881
-881
-880
-880
-880
-880
-880
-878
-877
-876
-876
-876
-875
-875
-875
-875
-875
-873
-871
-871
-870
-869
-870
-870
-869
-869
-869
-868
-867
-865
-864
-863
-863
-864
-866
-865
-863
-862
-862
-860
-859
-859
-858
-858
-859
-859
-858
-856
-855
-854
-853
-852
-852
-852
-852
-853
-854
-853
-853
-851
-850
-850
-851
-851
-852
-853
-853
-852
-852
-851
-850
-851
-851
-853
-853
-852
-852
-851
-849
-848
-847
-846
-846
-846
-846
-846
-846
-845
-844
-843
-843
-844
-845
-847
-848
-849
-850
-850
-851
-850
-851
-853
-855
-857
-858
-860
-860
-862
-862
-863
-865
-865
-866
-867
-869
-869
-870
-871
-871
-870
-870
-872
-873
-874
-876
-876
-876
-875
-874
-874
-874
-874
-875
-876
-877
-877
-877
-876
-876
-875
-876
-876
-877
-878
-879
-879
-879
-878
-877
-877
-877
-878
-879
-879
-880
-879
-879
-878
-877
-877
-877
-879
-879
-879
-880
-880
-880
-879
-879
-878
-879
-881
-881
-882
-882
-882
-881
-881
-878
-875
-874
-871
-868
-867
-865
-864
-863
-862
-862
-862
-861
-861
-863
-864
-863
-860
-856
-852
-849
-846
-842
-842
-843
-847
-852
-855
-856
-858
-859
-861
-865
-867
-869
-872
-875
-875
-875
-875
-877
-881
-882
-883
-883
-884
-886
-887
-887
-887
-885
-885
-886
-887
-888
-889
-889
-889
-890
-890
-888
-886
-886
-886
-887
-888
-888
-888
-888
-887
-887
-886
-887
-888
-890
-893
-897
-901
-895
-876
-849
-812
-773
-733
-696
-668
-644
-647
-701
-759
-804
-842
-856
-861
-867
-878
-896
-917
-932
-943
-950
-953
-956
-956
-952
-950
-946
-937
-925
-914
-904
-897
-891
-888
-886
-883
-882
-881
-879
-878
-876
-874
-875
-876
-875
-874
-873
-872
-870
-869
-868
-868
-869
-870
-870
-870
-870
-870
-869
-867
-866
-864
-863
-864
-866
-866
-866
-866
-865
-862
-861
-859
-860
-861
-861
-861
-861
-860
-860
-858
-857
-857
-857
-858
-858
-858
-857
-856
-854
-853
-852
-853
-852
-851
-852
-852
-852
-852
-850
-851
-851
-850
-850
-849
-849
-850
-850
-849
-847
-847
-847
-848
-849
-850
-850
-850
-850
-848
-846
-844
-844
-845
-845
-844
-844
-843
-843
-843
-842
-841
-841
-843
-844
-847
-847
-849
-850
-852
-853
-853
-853
-855
-858
-859
-859
-862
-863
-865
-865
-866
-867
-867
-869
-869
-869
-871
-872
-873
-872
-870
-870
-871
-873
-875
-875
-876
-876
-875
-875
-874
-874
-875
-877
-876
-878
-878
-878
-878
-877
-876
-877
-878
-877
-878
-879
-879
-879
-878
-878
-878
-877
-877
-878
-880
-881
-881
-881
-881
-881
-881
-881
-880
-881
-881
-882
-882
-882
-882
-882
-881
-882
-880
-879
-879
-878
-875
-870
-869
-866
-863
-864
-865
-865
-867
-868
-868
-870
-870
-867
-863
-859
-856
-854
-851
-850
-849
-849
-851
-854
-857
-860
-862
-865
-867
-871
-873
-874
-874
-874
-873
-875
-879
-883
-885
-887
-888
-889
-888
-886
-886
-887
-888
-889
-891
-892
-894
-893
-892
-892
-890
-890
-890
-889
-890
-892
-892
-891
-889
-888
-888
-890
-891
-891
-891
-891
-890
-891
-890
-893
-895
-889
-874
-849
-817
-785
-751
-723
-702
-686
-694
-744
-792
-829
-857
-867
-864
-864
-868
-877
-890
-903
-918
-927
-931
-940
-947
-947
-945
-940
-937
-934
-927
-919
-912
-906
-900
-896
-892
-889
-886
-884
-882
-883
-883
-883
-883
-882
-880
-878
-879
-879
-878
-881
-881
-880
-877
-875
-874
-872
-872
-872
-872
-874
-874
-873
-873
-872
-869
-867
-867
-867
-866
-867
-868
-868
-867
-866
-865
-864
-864
-863
-864
-864
-865
-865
-864
-862
-861
-860
-860
-860
-858
-858
-859
-860
-858
-857
-856
-855
-854
-853
-855
-856
-856
-857
-857
-856
-855
-853
-853
-854
-855
-855
-855
-855
-856
-855
-854
-852
-853
-854
-854
-854
-854
-853
-852
-850
-849
-847
-846
-846
-847
-848
-848
-850
-850
-850
-851
-853
-852
-853
-855
-858
-860
-861
-861
-862
-863
-864
-865
-869
-871
-872
-874
-874
-873
-873
-872
-873
-873
-875
-876
-877
-878
-878
-878
-879
-878
-878
-878
-879
-880
-881
-882
-881
-880
-880
-879
-880
-882
-882
-882
-882
-883
-882
-881
-880
-881
-881
-881
-881
-882
-884
-884
-885
-885
-883
-882
-882
-882
-883
-884
-885
-885
-885
-884
-883
-883
-882
-880
-879
-879
-878
-873
-871
-868
-866
-865
-866
-866
-868
-869
-869
-870
-871
-868
-866
-860
-857
-855
-852
-849
-849
-850
-852
-855
-856
-858
-862
-864
-867
-870
-874
-878
-879
-878
-877
-878
-880
-881
-885
-887
-889
-890
-890
-890
-889
-889
-889
-889
-890
-891
-892
-892
-893
-893
-892
-891
-892
-893
-894
-893
-892
-893
-892
-892
-892
-891
-892
-893
-893
-893
-892
-895
-897
-898
-902
-901
-888
-866
-836
-801
-764
-727
-695
-673
-661
-695
-756
-804
-848
-872
-876
-879
-884
-893
-910
-924
-937
-947
-953
-957
-959
-957
-952
-947
-941
-932
-922
-914
-907
-901
-897
-892
-892
-889
-885
-883
-883
-882
-882
-883
-883
-882
-880
-878
-877
-876
-874
-874
-875
-875
-876
-875
-874
-873
-871
-871
-871
-869
-870
-870
-869
-868
-867
-866
-865
-864
-863
-863
-864
-865
-866
-864
-862
-861
-859
-858
-857
-857
-857
-857
-857
-857
-857
-855
-852
-851
-852
-852
-851
-851
-850
-851
-849
-848
-847
-846
-846
-846
-847
-848
-848
-848
-848
-847
-846
-846
-846
-846
-847
-848
-847
-848
-848
-847
-845
-845
-844
-844
-844
-843
-843
-842
-840
-840
-839
-839
-839
-840
-841
-843
-845
-847
-848
-848
-849
-850
-852
-853
-855
-857
-858
-859
-860
-860
-860
-861
-863
-864
-865
-866
-868
-868
-868
-867
-867
-868
-869
-870
-872
-874
-875
-874
-873
-871
-870
-872
-873
-873
-874
-875
-876
-876
-875
-875
-875
-874
-875
-877
-878
-878
-878
-877
-877
-876
-876
-876
-877
-879
-880
-880
-880
-879
-879
-879
-878
-879
-879
-878
-879
-880
-881
-881
-881
-880
-880
-880
-879
-880
-879
-878
-876
-874
-868
-865
-863
-862
-862
-863
-864
-865
-865
-863
-863
-864
-863
-860
-859
-856
-853
-852
-848
-846
-845
-846
-848
-852
-854
-858
-861
-864
-867
-871
-874
-874
-873
-874
-877
-878
-880
-882
-884
-885
-884
-885
-886
-886
-887
-889
-890
-890
-890
-889
-889
-888
-888
-888
-889
-890
-889
-890
-891
-890
-889
-890
-890
-890
-890
-891
-891
-891
-891
-891
-891
-892
-895
-900
-903
-895
-875
-844
-808
-767
-725
-684
-654
-635
-656
-719
-777
-826
-857
-862
-864
-870
-881
-902
-923
-938
-950
-957
-960
-961
-958
-953
-949
-943
-934
-925
-915
-906
-899
-894
-889
-885
-882
-880
-879
-879
-879
-878
-877
-876
-875
-876
-874
-874
-874
-875
-874
-873
-872
-871
-869
-869
-869
-870
-871
-870
-869
-868
-867
-867
-865
-864
-862
-863
-864
-864
-863
-862
-861
-861
-859
-858
-859
-858
-859
-859
-858
-858
-857
-855
-853
-853
-853
-853
-853
-852
-852
-852
-850
-850
-848
-847
-845
-844
-845
-845
-848
-848
-847
-846
-845
-845
-844
-844
-846
-846
-845
-846
-846
-846
-845
-844
-843
-842
-842
-843
-844
-842
-841
-840
-839
-839
-838
-839
-840
-840
-841
-842
-843
-843
-844
-846
-848
-850
-852
-855
-857
-857
-858
-857
-858
-859
-861
-864
-865
-866
-867
-869
-869
-869
-868
-868
-869
-870
-871
-872
-873
-873
-874
-873
-872
-872
-873
-874
-875
-877
-878
-877
-876
-876
-876
-876
-876
-877
-877
-878
-878
-878
-877
-876
-877
-877
-877
-878
-879
-879
-880
-881
-880
-879
-878
-879
-879
-881
-880
-881
-881
-881
-881
-881
-880
-880
-879
-880
-881
-882
-882
-881
-880
-877
-875
-875
-870
-868
-868
-866
-864
-865
-865
-865
-864
-863
-864
-867
-868
-865
-862
-858
-854
-851
-846
-844
-844
-846
-851
-855
-857
-860
-862
-862
-865
-868
-870
-873
-873
-873
-875
-877
-879
-882
-883
-883
-885
-886
-886
-885
-885
-886
-886
-886
-886
-886
-886
-890
-890
-890
-889
-889
-889
-888
-888
-886
-886
-887
-888
-889
-889
-889
-888
-887
-886
-886
-885
-887
-892
-896
-896
-887
-868
-839
-805
-770
-734
-703
-683
-668
-688
-745
-792
-830
-857
-863
-862
-862
-868
-883
-900
-911
-922
-930
-934
-940
-945
-945
-942
-939
-935
-928
-918
-908
-902
-897
-893
-891
-889
-886
-883
-881
-879
-877
-877
-876
-876
-877
-877
-875
-874
-873
-872
-872
-872
-870
-871
-871
-869
-869
-869
-867
-865
-864
-864
-864
-865
-865
-864
-863
-863
-864
-862
-860
-860
-859
-860
-859
-859
-859
-858
-857
-856
-855
-855
-856
-856
-855
-856
-855
-853
-852
-852
-851
-850
-850
-849
-849
-849
-849
-848
-847
-847
-845
-844
-845
-846
-848
-849
-848
-847
-846
-845
-845
-844
-845
-846
-846
-846
-846
-845
-845
-843
-841
-840
-840
-840
-840
-840
-840
-839
-839
-839
-840
-840
-840
-841
-842
-844
-846
-846
-847
-848
-848
-848
-851
-854
-856
-857
-858
-860
-859
-859
-860
-860
-862
-862
-863
-865
-866
-866
-868
-867
-866
-867
-868
-869
-870
-870
-871
-870
-870
-869
-869
-869
-870
-870
-871
-872
-872
-871
-870
-870
-869
-870
-871
-871
-871
-872
-871
-869
-871
-871
-869
-869
-870
-870
-872
-873
-872
-872
-872
-870
-870
-870
-870
-871
-871
-871
-872
-872
-872
-871
-870
-870
-871
-873
-874
-875
-874
-873
-873
-870
-867
-867
-864
-859
-858
-857
-855
-854
-854
-854
-855
-853
-852
-854
-855
-853
-851
-847
-843
-840
-837
-835
-835
-838
-840
-842
-845
-846
-848
-851
-853
-856
-859
-862
-863
-865
-865
-865
-866
-867
-869
-871
-873
-874
-876
-876
-876
-875
-875
-875
-875
-876
-877
-877
-879
-879
-878
-878
-877
-876
-874
-875
-876
-879
-878
-877
-877
-878
-876
-876
-875
-876
-877
-879
-883
-886
-889
-886
-871
-846
-813
-777
-738
-700
-670
-647
-642
-688
-749
-797
-838
-855
-856
-860
-867
-881
-901
-914
-925
-933
-938
-940
-942
-939
-936
-931
-925
-915
-906
-896
-888
-882
-879
-876
-874
-872
-869
-866
-864
-864
-864
-864
-864
-864
-864
-863
-862
-861
-859
-858
-857
-857
-858
-858
-858
-857
-857
-856
-854
-853
-852
-852
-851
-850
-850
-849
-850
-850
-850
-849
-847
-848
-847
-845
-845
-845
-844
-843
-842
-841
-841
-841
-841
-840
-840
-839
-839
-838
-836
-834
-834
-833
-833
-833
-833
-832
-831
-830
-829
-829
-829
-829
-829
-830
-832
-831
-831
-831
-829
-827
-828
-832
-831
-830
-831
-830
-830
-828
-827
-826
-826
-827
-825
-826
-826
-825
-823
-822
-823
-824
-826
-828
-829
-831
-833
-833
-834
-834
-835
-837
-838
-841
-844
-846
-846
-847
-848
-847
-847
-848
-849
-851
-853
-854
-855
-856
-858
-856
-854
-854
-855
-857
-857
-859
-859
-859
-858
-858
-857
-858
-858
-859
-860
-862
-862
-862
-861
-861
-860
-860
-861
-861
-862
-863
-864
-863
-863
-863
-863
-862
-862
-863
-864
-865
-865
-864
-863
-864
-864
-863
-864
-865
-867
-867
-867
-866
-866
-866
-866
-865
-864
-867
-868
-867
-868
-868
-868
-867
-866
-866
-867
-867
-868
-869
-869
-868
-867
-864
-862
-860
-857
-854
-851
-848
-849
-850
-850
-849
-848
-848
-849
-852
-851
-850
-847
-843
-840
-837
-833
-830
-831
-832
-835
-841
-845
-847
-849
-849
-851
-854
-858
-860
-861
-860
-862
-863
-863
-865
-867
-868
-870
-871
-872
-873
-873
-873
-872
-871
-871
-872
-873
-875
-875
-875
-877
-875
-873
-872
-872
-872
-873
-873
-874
-875
-874
-871
-871
-871
-871
-871
-875
-879
-882
-885
-888
-881
-861
-833
-798
-761
-719
-681
-652
-631
-641
-699
-756
-801
-835
-844
-845
-851
-860
-877
-896
-909
-921
-929
-932
-937
-938
-935
-932
-928
-922
-912
-901
-891
-883
-878
-874
-870
-869
-867
-864
-861
-860
-858
-857
-858
-858
-858
-859
-859
-859
-857
-855
-854
-854
-853
-854
-854
-854
-854
-852
-850
-849
-849
-849
-849
-850
-851
-850
-848
-846
-846
-845
-844
-843
-842
-842
-843
-843
-843
-840
-838
-839
-838
-838
-838
-837
-838
-837
-836
-835
-834
-832
-830
-831
-830
-830
-830
-830
-829
-828
-827
-827
-828
-828
-828
-827
-828
-827
-827
-827
-826
-826
-827
-827
-827
-827
-826
-827
-827
-826
-824
-824
-822
-821
-820
-820
-819
-820
-819
-818
-819
-820
-821
-821
-823
-824
-825
-827
-828
-830
-831
-832
-833
-835
-837
-838
-840
-842
-843
-845
-846
-846
-845
-847
-850
-852
-852
-852
-852
-852
-851
-851
-852
-852
-852
-853
-855
-856
-856
-854
-854
-854
-853
-855
-855
-855
-856
-856
-855
-854
-854
-854
-853
-854
-855
-856
-857
-857
-858
-858
-857
-855
-853
-856
-857
-856
-854
-857
-858
-859
-860
-860
-859
-860
-861
-862
-863
-863
-862
-861
-860
-859
-860
-860
-859
-861
-862
-861
-862
-862
-860
-858
-858
-859
-858
-858
-857
-855
-850
-847
-845
-843
-843
-844
-845
-846
-846
-846
-846
-846
-844
-841
-839
-837
-834
-833
-830
-829
-830
-830
-832
-834
-835
-840
-843
-845
-847
-849
-852
-853
-853
-853
-855
-857
-859
-861
-864
-866
-865
-864
-865
-867
-867
-868
-869
-869
-869
-869
-867
-866
-866
-865
-867
-869
-871
-871
-871
-870
-868
-867
-867
-866
-867
-868
-869
-869
-869
-868
-868
-870
-872
-875
-876
-866
-847
-818
-785
-749
-712
-683
-664
-653
-685
-744
-788
-823
-844
-844
-841
-844
-849
-863
-879
-891
-903
-910
-915
-922
-926
-925
-920
-917
-917
-912
-903
-894
-887
-883
-877
-872
-868
-865
-863
-863
-862
-860
-862
-862
-860
-859
-858
-858
-858
-858
-857
-857
-857
-856
-853
-852
-852
-852
-853
-854
-853
-852
-852
-850
-848
-847
-846
-845
-846
-847
-848
-848
-848
-847
-844
-843
-842
-842
-842
-842
-842
-843
-841
-839
-839
-837
-837
-837
-836
-836
-837
-837
-836
-835
-833
-832
-831
-829
-830
-831
-832
-832
-832
-832
-830
-828
-828
-829
-830
-831
-831
-832
-832
-831
-830
-829
-828
-828
-828
-829
-830
-829
-828
-827
-826
-825
-824
-823
-824
-825
-826
-828
-829
-830
-829
-829
-829
-831
-834
-836
-838
-838
-840
-839
-839
-840
-843
-844
-846
-849
-851
-852
-854
-855
-854
-853
-854
-854
-855
-857
-857
-859
-859
-859
-858
-857
-857
-858
-859
-861
-862
-862
-861
-860
-860
-861
-860
-860
-860
-861
-861
-862
-861
-861
-860
-859
-859
-860
-861
-862
-863
-864
-864
-863
-862
-861
-861
-861
-863
-864
-864
-863
-862
-862
-862
-862
-863
-866
-867
-868
-869
-868
-867
-866
-865
-864
-864
-865
-866
-868
-868
-869
-868
-866
-865
-865
-865
-866
-868
-868
-867
-864
-862
-858
-853
-849
-848
-848
-848
-848
-849
-850
-849
-847
-847
-849
-847
-845
-844
-841
-839
-837
-833
-831
-830
-830
-834
-838
-841
-845
-849
-851
-853
-854
-856
-857
-858
-858
-860
-862
-864
-867
-868
-869
-869
-869
-869
-869
-872
-874
-875
-875
-875
-874
-873
-872
-873
-873
-875
-875
-876
-876
-875
-873
-872
-873
-873
-875
-875
-874
-874
-874
-874
-873
-873
-875
-877
-882
-884
-876
-857
-827
-790
-751
-711
-674
-647
-627
-648
-710
-765
-811
-840
-845
-847
-853
-864
-884
-901
-916
-927
-933
-935
-936
-934
-932
-930
-927
-920
-909
-900
-891
-884
-879
-874
-871
-869
-867
-866
-865
-866
-864
-862
-861
-860
-858
-858
-858
-858
-858
-858
-857
-855
-854
-853
-853
-853
-853
-853
-853
-852
-851
-849
-848
-848
-847
-847
-848
-847
-847
-846
-845
-844
-843
-844
-844
-844
-845
-844
-844
-843
-843
-841
-839
-838
-836
-837
-836
-837
-836
-835
-833
-831
-829
-828
-828
-829
-828
-829
-829
-828
-827
-825
-824
-824
-823
-824
-825
-825
-825
-825
-824
-823
-822
-822
-823
-823
-823
-821
-819
-819
-816
-814
-814
-816
-816
-818
-821
-825
-827
-829
-829
-829
-829
-830
-832
-834
-836
-838
-840
-841
-841
-841
-842
-842
-844
-847
-849
-851
-851
-851
-852
-852
-853
-853
-853
-855
-855
-857
-859
-858
-857
-856
-855
-856
-857
-858
-859
-860
-861
-861
-860
-859
-858
-858
-858
-860
-861
-861
-861
-860
-860
-860
-861
-863
-862
-862
-863
-864
-863
-863
-862
-863
-863
-863
-863
-864
-865
-865
-866
-866
-865
-863
-864
-864
-864
-865
-867
-866
-867
-867
-866
-865
-864
-866
-867
-868
-868
-868
-868
-865
-865
-864
-863
-864
-866
-867
-868
-868
-869
-868
-867
-865
-865
-865
-866
-868
-867
-864
-862
-858
-854
-852
-849
-849
-850
-851
-852
-852
-852
-852
-853
-851
-848
-845
-843
-842
-841
-837
-834
-832
-834
-836
-839
-843
-847
-850
-851
-854
-857
-859
-859
-859
-858
-859
-863
-865
-867
-871
-871
-871
-871
-871
-871
-871
-873
-874
-873
-874
-875
-875
-874
-873
-872
-873
-873
-875
-876
-876
-876
-875
-874
-873
-873
-872
-873
-874
-874
-875
-875
-873
-873
-876
-879
-880
-871
-853
-824
-791
-754
-715
-681
-656
-638
-664
-724
-775
-813
-840
-845
-845
-848
-856
-873
-891
-904
-917
-926
-929
-935
-936
-933
-930
-925
-922
-915
-907
-898
-891
-883
-878
-874
-872
-870
-869
-868
-867
-866
-864
-863
-863
-863
-864
-862
-860
-861
-862
-862
-861
-860
-859
-858
-856
-855
-855
-856
-857
-856
-855
-854
-853
-851
-850
-848
-849
-849
-849
-849
-849
-848
-846
-845
-845
-844
-845
-845
-845
-845
-846
-843
-841
-840
-840
-840
-840
-840
-839
-840
-839
-837
-836
-834
-833
-832
-833
-832
-831
-832
-831
-831
-831
-828
-826
-827
-828
-830
-831
-831
-830
-827
-826
-824
-821
-822
-823
-823
-824
-824
-824
-824
-824
-825
-825
-823
-821
-821
-824
-827
-831
-834
-835
-836
-837
-839
-841
-844
-846
-847
-848
-847
-848
-848
-849
-850
-853
-856
-858
-859
-859
-858
-858
-858
-859
-859
-859
-861
-861
-861
-862
-860
-859
-859
-859
-860
-860
-862
-862
-861
-862
-863
-862
-862
-862
-863
-864
-866
-865
-865
-865
-865
-862
-860
-859
-860
-861
-863
-865
-865
-866
-865
-863
-863
-862
-860
-860
-863
-864
-864
-865
-865
-866
-866
-864
-864
-865
-865
-865
-866
-865
-864
-863
-865
-867
-870
-873
-873
-872
-872
-871
-871
-870
-869
-869
-869
-869
-870
-872
-871
-870
-869
-869
-868
-867
-865
-865
-864
-861
-858
-856
-853
-852
-851
-849
-851
-851
-852
-854
-855
-853
-851
-848
-844
-840
-838
-834
-831
-830
-829
-833
-837
-843
-850
-855
-858
-863
-865
-866
-867
-866
-864
-864
-865
-867
-868
-870
-873
-874
-874
-874
-873
-872
-872
-872
-873
-874
-875
-876
-876
-875
-874
-873
-873
-872
-873
-875
-876
-877
-876
-874
-872
-871
-871
-870
-870
-870
-871
-871
-873
-874
-877
-880
-873
-855
-827
-797
-764
-731
-700
-679
-664
-682
-737
-785
-823
-849
-855
-852
-853
-858
-870
-885
-898
-910
-920
-924
-932
-936
-934
-928
-924
-920
-916
-909
-901
-893
-888
-883
-877
-873
-871
-869
-867
-867
-868
-867
-864
-862
-860
-860
-859
-860
-861
-861
-861
-860
-861
-859
-859
-858
-857
-856
-855
-854
-855
-855
-856
-856
-855
-853
-850
-848
-847
-848
-849
-850
-851
-851
-849
-846
-843
-840
-839
-838
-838
-839
-840
-841
-841
-840
-840
-838
-838
-837
-837
-836
-834
-835
-834
-832
-830
-830
-830
-831
-831
-831
-830
-830
-830
-828
-827
-825
-825
-827
-827
-827
-828
-827
-826
-825
-824
-823
-821
-819
-820
-823
-826
-826
-826
-825
-824
-823
-822
-823
-824
-827
-829
-831
-832
-833
-835
-835
-836
-839
-841
-844
-845
-845
-846
-847
-847
-848
-849
-851
-853
-856
-857
-855
-854
-853
-852
-852
-853
-853
-854
-854
-857
-860
-861
-860
-856
-855
-858
-862
-867
-870
-870
-869
-866
-865
-864
-863
-863
-863
-865
-865
-865
-864
-864
-862
-862
-862
-863
-863
-864
-866
-866
-865
-864
-864
-863
-863
-864
-865
-865
-866
-867
-867
-866
-864
-863
-864
-865
-866
-868
-867
-867
-866
-864
-864
-865
-866
-866
-869
-870
-869
-868
-868
-868
-870
-870
-870
-870
-870
-872
-873
-873
-873
-873
-872
-871
-870
-870
-873
-873
-873
-873
-871
-870
-870
-869
-867
-865
-861
-858
-853
-849
-845
-844
-845
-848
-852
-857
-856
-854
-854
-852
-852
-850
-848
-847
-847
-847
-844
-843
-845
-847
-849
-851
-852
-853
-855
-858
-861
-864
-867
-867
-865
-864
-865
-865
-867
-871
-874
-875
-876
-876
-875
-874
-874
-873
-874
-875
-876
-875
-874
-873
-873
-872
-874
-875
-876
-877
-879
-879
-879
-878
-877
-875
-873
-874
-877
-880
-881
-883
-884
-885
-885
-886
-884
-869
-847
-815
-779
-740
-699
-665
-638
-622
-660
-723
-775
-819
-842
-846
-850
-857
-869
-890
-907
-922
-935
-943
-945
-946
-943
-936
-928
-917
-904
-898
-894
-892
-890
-889
-886
-881
-877
-874
-871
-868
-868
-867
-867
-867
-865
-864
-863
-861
-860
-858
-858
-859
-859
-860
-859
-857
-855
-854
-854
-854
-854
-853
-853
-854
-853
-850
-849
-847
-847
-847
-848
-848
-847
-844
-841
-839
-838
-840
-841
-842
-843
-843
-843
-844
-843
-840
-837
-834
-834
-834
-835
-835
-834
-833
-832
-829
-827
-826
-824
-823
-824
-824
-824
-823
-822
-818
-815
-815
-814
-813
-814
-815
-818
-821
-821
-821
-820
-819
-819
-820
-820
-821
-820
-819
-818
-817
-816
-817
-818
-819
-821
-823
-825
-828
-828
-829
-829
-831
-832
-835
-838
-841
-844
-845
-844
-842
-841
-840
-841
-842
-844
-846
-847
-849
-853
-859
-862
-862
-860
-859
-860
-862
-864
-866
-867
-867
-866
-865
-863
-862
-863
-864
-864
-865
-865
-863
-861
-860
-860
-860
-861
-862
-862
-862
-862
-863
-862
-861
-861
-861
-863
-864
-865
-864
-863
-861
-861
-861
-862
-862
-863
-864
-866
-867
-863
-862
-860
-859
-860
-860
-862
-863
-864
-866
-866
-866
-865
-866
-868
-870
-871
-871
-870
-869
-867
-867
-865
-865
-866
-868
-869
-870
-870
-869
-868
-866
-864
-862
-862
-864
-866
-868
-868
-866
-866
-865
-864
-865
-866
-868
-867
-866
-863
-861
-861
-861
-865
-869
-872
-874
-876
-876
-875
-874
-872
-867
-863
-858
-856
-855
-856
-856
-854
-854
-853
-851
-851
-851
-852
-853
-852
-849
-846
-841
-835
-830
-829
-831
-833
-838
-842
-846
-849
-847
-846
-849
-852
-856
-857
-856
-857
-858
-861
-864
-864
-865
-868
-869
-870
-871
-872
-872
-871
-871
-868
-867
-866
-866
-866
-867
-871
-873
-874
-874
-873
-869
-867
-867
-868
-871
-873
-871
-871
-870
-867
-864
-863
-864
-864
-870
-872
-864
-846
-818
-786
-750
-714
-686
-665
-650
-669
-725
-772
-806
-830
-834
-830
-832
-841
-857
-876
-891
-901
-906
-906
-910
-915
-921
-925
-927
-926
-920
-909
-897
-887
-879
-872
-867
-866
-866
-865
-864
-863
-862
-859
-857
-856
-855
-856
-856
-856
-856
-855
-852
-850
-848
-847
-847
-848
-849
-849
-849
-845
-841
-839
-838
-839
-842
-845
-849
-850
-848
-845
-841
-838
-835
-833
-834
-838
-842
-843
-843
-841
-839
-835
-833
-832
-830
-830
-832
-833
-832
-831
-830
-828
-824
-823
-822
-824
-826
-824
-822
-819
-815
-812
-810
-811
-812
-813
-815
-815
-816
-813
-810
-809
-809
-812
-817
-821
-823
-823
-820
-818
-816
-815
-814
-814
-815
-815
-816
-817
-817
-816
-816
-815
-815
-817
-818
-822
-824
-826
-828
-829
-828
-829
-829
-831
-833
-835
-837
-840
-841
-842
-842
-843
-841
-840
-839
-841
-847
-853
-858
-859
-856
-852
-851
-852
-855
-857
-857
-857
-857
-856
-855
-853
-851
-852
-853
-855
-856
-857
-856
-854
-852
-851
-851
-851
-853
-854
-855
-855
-853
-852
-853
-852
-851
-851
-851
-852
-851
-851
-851
-849
-849
-849
-850
-853
-858
-862
-864
-863
-862
-860
-858
-858
-858
-859
-860
-861
-861
-862
-861
-860
-859
-858
-857
-858
-859
-861
-863
-863
-862
-860
-858
-857
-858
-859
-861
-863
-864
-864
-862
-861
-860
-858
-857
-855
-857
-862
-864
-862
-859
-857
-855
-855
-859
-859
-859
-859
-860
-864
-867
-868
-866
-864
-863
-862
-863
-865
-865
-865
-864
-860
-855
-851
-845
-844
-842
-842
-843
-843
-844
-843
-841
-841
-842
-843
-843
-842
-839
-836
-831
-826
-822
-822
-824
-828
-833
-839
-842
-845
-844
-844
-844
-845
-848
-850
-851
-853
-856
-857
-856
-856
-857
-858
-859
-860
-861
-862
-862
-861
-860
-860
-861
-862
-863
-864
-863
-863
-865
-867
-867
-864
-862
-861
-862
-864
-865
-865
-865
-865
-864
-863
-862
-862
-862
-863
-865
-869
-863
-845
-817
-782
-745
-705
-667
-640
-620
-624
-676
-733
-777
-812
-826
-828
-834
-845
-863
-885
-901
-913
-922
-924
-922
-922
-919
-918
-917
-913
-906
-898
-888
-879
-870
-864
-861
-859
-858
-857
-856
-854
-853
-850
-847
-846
-845
-845
-845
-845
-845
-844
-844
-843
-842
-841
-841
-840
-839
-838
-836
-834
-834
-836
-835
-834
-833
-834
-835
-838
-842
-841
-839
-835
-832
-830
-828
-830
-832
-832
-833
-832
-831
-827
-824
-824
-824
-823
-824
-824
-822
-820
-817
-813
-811
-812
-812
-812
-813
-814
-813
-810
-807
-804
-803
-803
-804
-804
-804
-804
-805
-805
-803
-801
-799
-798
-797
-797
-798
-798
-799
-798
-797
-796
-795
-793
-794
-798
-804
-809
-811
-810
-808
-806
-806
-808
-809
-812
-814
-816
-818
-819
-821
-823
-825
-828
-831
-833
-835
-836
-836
-836
-836
-835
-836
-838
-842
-844
-846
-849
-848
-845
-844
-842
-842
-842
-842
-841
-839
-839
-841
-843
-845
-847
-848
-847
-848
-849
-850
-851
-851
-849
-847
-845
-844
-846
-847
-848
-849
-850
-849
-847
-845
-844
-843
-843
-846
-849
-851
-852
-851
-847
-845
-845
-847
-849
-852
-853
-851
-849
-847
-846
-845
-848
-851
-853
-854
-857
-859
-859
-857
-854
-851
-851
-851
-853
-855
-856
-857
-857
-855
-854
-852
-850
-850
-852
-853
-855
-855
-856
-854
-853
-852
-851
-850
-851
-853
-854
-854
-853
-852
-851
-849
-848
-851
-855
-858
-861
-861
-860
-858
-854
-849
-845
-845
-850
-856
-859
-861
-861
-858
-856
-856
-856
-855
-856
-856
-856
-855
-852
-848
-842
-837
-834
-835
-836
-838
-839
-839
-839
-839
-839
-837
-836
-835
-832
-829
-825
-822
-821
-822
-824
-826
-827
-825
-825
-828
-832
-837
-841
-846
-849
-849
-849
-850
-851
-851
-853
-856
-858
-858
-857
-855
-854
-855
-856
-858
-858
-858
-857
-855
-855
-853
-853
-854
-855
-855
-855
-857
-856
-854
-851
-849
-850
-853
-854
-855
-854
-852
-850
-851
-852
-854
-858
-860
-852
-831
-802
-768
-735
-700
-669
-645
-625
-647
-707
-758
-798
-824
-829
-827
-829
-834
-848
-865
-879
-891
-901
-905
-910
-911
-909
-907
-903
-899
-894
-885
-877
-870
-865
-860
-854
-848
-842
-840
-841
-844
-849
-852
-852
-850
-847
-846
-845
-843
-842
-842
-841
-841
-839
-839
-838
-835
-834
-835
-836
-837
-837
-835
-833
-832
-829
-828
-828
-828
-829
-831
-831
-829
-827
-824
-822
-820
-820
-821
-825
-825
-823
-821
-820
-819
-817
-816
-816
-816
-816
-818
-817
-817
-815
-812
-811
-811
-811
-812
-811
-810
-808
-807
-805
-802
-800
-800
-799
-800
-800
-801
-800
-800
-798
-796
-795
-795
-795
-796
-797
-798
-799
-798
-795
-793
-793
-791
-791
-793
-796
-798
-800
-801
-802
-802
-802
-804
-806
-808
-811
-815
-817
-818
-820
-819
-820
-822
-824
-827
-829
-828
-828
-827
-829
-829
-833
-835
-833
-830
-831
-834
-838
-844
-846
-846
-846
-845
-843
-843
-845
-846
-844
-842
-841
-840
-839
-838
-839
-841
-842
-843
-844
-843
-841
-840
-839
-839
-839
-840
-842
-842
-842
-841
-839
-839
-838
-837
-838
-840
-842
-842
-841
-842
-841
-839
-837
-838
-841
-844
-843
-839
-836
-834
-835
-840
-846
-850
-850
-851
-851
-850
-849
-847
-845
-843
-843
-844
-846
-847
-848
-849
-849
-847
-846
-845
-844
-845
-846
-847
-848
-849
-849
-847
-845
-843
-841
-842
-843
-844
-843
-840
-837
-839
-843
-849
-854
-855
-854
-853
-854
-853
-849
-845
-840
-835
-832
-830
-830
-831
-833
-834
-832
-831
-831
-831
-830
-830
-830
-827
-824
-822
-818
-813
-812
-813
-815
-819
-822
-825
-828
-830
-832
-833
-835
-836
-834
-831
-830
-832
-835
-842
-848
-852
-852
-852
-851
-852
-855
-856
-857
-858
-855
-853
-852
-851
-851
-851
-853
-854
-854
-855
-854
-853
-851
-850
-850
-850
-851
-851
-851
-851
-851
-851
-850
-849
-849
-851
-855
-854
-841
-819
-786
-751
-712
-674
-644
-622
-613
-653
-713
-758
-797
-818
-820
-823
-829
-839
-859
-873
-885
-898
-902
-906
-910
-909
-907
-905
-903
-899
-890
-880
-871
-863
-856
-851
-847
-845
-844
-843
-842
-842
-841
-838
-836
-832
-829
-828
-828
-828
-830
-831
-833
-834
-833
-831
-828
-827
-828
-830
-831
-830
-828
-827
-824
-824
-824
-823
-823
-824
-825
-826
-824
-822
-820
-819
-817
-817
-818
-817
-817
-815
-814
-813
-810
-809
-808
-807
-807
-807
-806
-806
-805
-803
-799
-793
-790
-791
-793
-795
-796
-796
-793
-790
-788
-787
-785
-786
-788
-791
-794
-793
-791
-789
-787
-786
-785
-786
-787
-786
-786
-785
-784
-784
-783
-783
-782
-782
-782
-784
-785
-787
-789
-791
-792
-794
-795
-796
-797
-799
-801
-802
-804
-807
-809
-813
-816
-818
-820
-822
-824
-824
-822
-822
-821
-820
-821
-825
-829
-831
-831
-830
-829
-829
-830
-830
-831
-832
-832
-833
-833
-831
-830
-830
-830
-829
-829
-830
-832
-832
-833
-831
-829
-827
-825
-825
-827
-830
-832
-832
-831
-831
-832
-832
-832
-833
-835
-836
-838
-838
-837
-835
-832
-830
-829
-830
-833
-837
-838
-839
-839
-838
-836
-835
-834
-835
-836
-837
-838
-839
-839
-837
-836
-835
-834
-835
-835
-835
-834
-834
-834
-833
-832
-829
-829
-830
-833
-835
-839
-840
-842
-842
-842
-842
-840
-837
-837
-838
-841
-844
-845
-842
-840
-838
-837
-837
-838
-837
-835
-831
-826
-822
-820
-817
-817
-818
-819
-819
-819
-819
-820
-820
-819
-816
-813
-808
-804
-801
-798
-798
-799
-801
-805
-807
-806
-809
-814
-819
-825
-829
-830
-829
-826
-825
-827
-828
-830
-833
-838
-839
-840
-841
-841
-839
-839
-839
-840
-841
-841
-842
-842
-840
-839
-838
-838
-840
-842
-841
-841
-842
-841
-840
-838
-836
-836
-836
-836
-836
-838
-840
-842
-843
-841
-840
-845
-844
-829
-807
-774
-734
-694
-653
-617
-591
-582
-628
-693
-745
-785
-802
-801
-804
-812
-830
-854
-871
-885
-895
-900
-904
-906
-902
-898
-894
-891
-882
-872
-864
-857
-851
-845
-841
-835
-831
-830
-828
-827
-825
-826
-826
-826
-825
-823
-822
-820
-819
-819
-821
-821
-822
-823
-822
-820
-819
-817
-817
-817
-816
-815
-814
-814
-813
-811
-810
-809
-809
-808
-808
-808
-807
-807
-805
-802
-800
-800
-801
-803
-805
-804
-803
-801
-799
-797
-794
-793
-794
-796
-797
-797
-795
-792
-789
-786
-785
-785
-786
-785
-784
-782
-781
-779
-777
-775
-774
-774
-774
-775
-775
-775
-775
-773
-771
-770
-770
-770
-771
-770
-771
-771
-771
-769
-767
-766
-766
-767
-770
-771
-774
-774
-777
-781
-781
-783
-785
-788
-793
-797
-798
-798
-801
-803
-806
-808
-811
-813
-815
-815
-816
-818
-819
-818
-817
-816
-816
-817
-818
-820
-821
-822
-821
-820
-818
-817
-818
-819
-820
-820
-820
-820
-819
-817
-816
-817
-817
-818
-819
-820
-822
-821
-819
-817
-816
-814
-812
-813
-817
-823
-825
-824
-823
-823
-823
-823
-823
-823
-824
-825
-825
-824
-823
-823
-821
-821
-822
-822
-823
-824
-824
-824
-824
-823
-822
-823
-823
-823
-823
-824
-824
-823
-823
-820
-820
-822
-822
-823
-822
-821
-823
-824
-824
-824
-825
-825
-826
-828
-828
-829
-830
-828
-825
-822
-820
-816
-813
-812
-810
-810
-810
-809
-809
-809
-809
-809
-809
-809
-807
-805
-801
-797
-795
-790
-788
-789
-790
-792
-796
-801
-806
-809
-808
-809
-811
-814
-817
-819
-819
-820
-820
-820
-821
-822
-822
-824
-825
-828
-830
-830
-830
-829
-828
-827
-827
-827
-828
-829
-829
-829
-829
-828
-826
-825
-823
-823
-825
-831
-835
-835
-833
-831
-828
-826
-827
-826
-827
-831
-833
-836
-838
-830
-812
-784
-750
-716
-681
-650
-629
-612
-632
-689
-734
-769
-795
-799
-798
-802
-809
-824
-840
-851
-861
-869
-873
-880
-885
-886
-884
-880
-877
-870
-861
-851
-844
-839
-835
-831
-831
-828
-824
-821
-818
-813
-811
-812
-815
-817
-819
-818
-817
-813
-812
-812
-814
-814
-813
-812
-812
-811
-810
-809
-806
-805
-804
-805
-806
-804
-804
-804
-802
-801
-800
-799
-798
-798
-799
-798
-797
-794
-792
-790
-789
-790
-791
-791
-793
-794
-793
-791
-789
-788
-786
-784
-782
-782
-783
-783
-781
-781
-778
-776
-775
-773
-771
-771
-771
-770
-771
-770
-768
-766
-765
-764
-764
-765
-764
-763
-760
-760
-758
-756
-759
-761
-763
-766
-768
-769
-769
-769
-768
-767
-767
-769
-771
-773
-776
-778
-780
-782
-783
-784
-786
-787
-789
-791
-794
-796
-798
-800
-800
-800
-801
-801
-801
-804
-805
-806
-807
-808
-807
-806
-804
-803
-803
-805
-805
-808
-811
-810
-806
-806
-805
-805
-804
-806
-809
-809
-810
-810
-811
-812
-811
-812
-811
-812
-813
-813
-813
-813
-812
-811
-810
-810
-810
-811
-812
-812
-812
-812
-811
-811
-810
-810
-811
-812
-813
-813
-813
-813
-812
-811
-810
-811
-811
-811
-811
-812
-813
-814
-811
-812
-813
-814
-815
-816
-816
-817
-816
-816
-816
-816
-814
-814
-815
-816
-817
-817
-818
-816
-815
-814
-814
-814
-815
-816
-817
-818
-818
-818
-816
-815
-813
-812
-812
-813
-814
-815
-814
-812
-810
-805
-801
-800
-799
-800
-799
-800
-800
-797
-794
-794
-795
-795
-795
-796
-796
-794
-790
-785
-780
-779
-781
-784
-788
-791
-795
-798
-799
-801
-803
-804
-805
-805
-805
-806
-809
-810
-811
-813
-815
-814
-814
-815
-817
-817
-818
-820
-819
-818
-817
-816
-814
-813
-813
-814
-818
-821
-824
-825
-824
-823
-822
-821
-820
-820
-820
-821
-819
-818
-818
-818
-819
-820
-822
-826
-825
-812
-789
-756
-719
-680
-638
-602
-575
-560
-595
-658
-711
-756
-780
-783
-787
-795
-810
-833
-850
-864
-874
-880
-881
-881
-879
-877
-874
-870
-861
-852
-844
-836
-830
-825
-821
-817
-814
-812
-811
-810
-809
-809
-806
-804
-803
-803
-803
-802
-803
-802
-801
-800
-799
-797
-795
-796
-796
-796
-795
-793
-792
-791
-791
-792
-793
-794
-794
-795
-793
-793
-791
-790
-787
-785
-783
-783
-784
-785
-785
-785
-785
-783
-781
-780
-779
-780
-779
-778
-777
-776
-774
-771
-771
-768
-766
-766
-766
-765
-763
-761
-759
-757
-756
-756
-756
-757
-756
-756
-755
-754
-752
-751
-750
-750
-751
-751
-749
-749
-749
-749
-749
-748
-747
-747
-747
-746
-747
-749
-751
-754
-756
-757
-757
-758
-760
-763
-767
-769
-770
-774
-775
-776
-779
-782
-786
-790
-792
-794
-796
-797
-796
-795
-795
-795
-796
-797
-797
-797
-798
-800
-804
-805
-803
-802
-801
-802
-803
-803
-803
-804
-803
-803
-802
-800
-799
-801
-801
-802
-804
-804
-803
-802
-800
-799
-800
-801
-801
-802
-803
-803
-802
-800
-800
-801
-802
-801
-802
-803
-804
-804
-802
-800
-798
-798
-799
-800
-803
-805
-806
-807
-808
-807
-807
-805
-805
-807
-807
-808
-809
-808
-807
-805
-804
-804
-805
-806
-808
-808
-808
-807
-805
-805
-805
-804
-805
-806
-806
-808
-807
-806
-805
-802
-801
-799
-797
-794
-791
-789
-786
-785
-783
-781
-783
-785
-786
-791
-793
-793
-792
-790
-787
-782
-779
-774
-773
-772
-772
-774
-778
-780
-782
-784
-785
-788
-792
-794
-795
-795
-796
-797
-798
-799
-801
-803
-804
-805
-807
-807
-807
-806
-805
-805
-804
-804
-805
-808
-810
-812
-809
-807
-805
-804
-804
-805
-806
-806
-807
-807
-807
-808
-809
-808
-807
-807
-807
-808
-807
-809
-809
-810
-812
-807
-790
-763
-732
-701
-667
-634
-610
-592
-598
-649
-700
-736
-768
-780
-778
-779
-784
-792
-807
-818
-828
-841
-848
-856
-862
-863
-861
-858
-854
-851
-845
-837
-829
-822
-816
-812
-809
-805
-802
-797
-794
-793
-792
-792
-794
-796
-797
-797
-795
-793
-792
-791
-789
-789
-790
-789
-788
-787
-784
-783
-783
-782
-783
-782
-781
-780
-779
-778
-780
-779
-778
-775
-774
-773
-774
-775
-775
-775
-774
-774
-773
-773
-772
-771
-771
-772
-771
-770
-767
-765
-765
-764
-763
-762
-761
-759
-757
-755
-754
-752
-751
-751
-750
-750
-749
-749
-747
-745
-744
-743
-743
-743
-743
-743
-745
-745
-745
-745
-743
-743
-743
-743
-743
-742
-741
-741
-741
-742
-744
-748
-750
-752
-754
-755
-757
-758
-760
-762
-763
-765
-767
-769
-772
-775
-777
-779
-779
-779
-780
-780
-782
-783
-786
-787
-788
-789
-788
-787
-787
-787
-788
-788
-789
-790
-789
-789
-789
-788
-788
-789
-790
-790
-790
-791
-791
-790
-789
-789
-790
-791
-791
-790
-790
-792
-793
-793
-792
-790
-789
-789
-791
-792
-793
-794
-794
-794
-792
-792
-792
-791
-791
-792
-794
-794
-795
-794
-794
-792
-792
-793
-793
-794
-795
-795
-795
-794
-793
-792
-791
-790
-792
-793
-794
-795
-795
-794
-795
-797
-798
-800
-800
-800
-800
-801
-802
-801
-799
-798
-797
-798
-799
-800
-801
-801
-801
-800
-799
-799
-799
-798
-798
-797
-795
-792
-789
-786
-782
-779
-777
-776
-780
-781
-779
-780
-782
-782
-780
-777
-773
-770
-767
-767
-763
-760
-761
-763
-766
-769
-773
-775
-778
-782
-786
-790
-794
-795
-794
-792
-791
-792
-793
-796
-798
-801
-802
-801
-800
-800
-800
-800
-800
-801
-802
-804
-804
-804
-804
-803
-801
-799
-799
-800
-801
-804
-804
-802
-800
-800
-801
-801
-803
-804
-803
-802
-803
-803
-803
-804
-807
-809
-798
-777
-746
-710
-671
-630
-592
-563
-544
-568
-630
-687
-734
-764
-769
-773
-779
-790
-812
-830
-844
-857
-864
-865
-867
-866
-862
-858
-853
-846
-835
-826
-816
-809
-805
-801
-796
-792
-790
-789
-791
-792
-793
-795
-794
-790
-788
-786
-786
-785
-785
-786
-786
-786
-784
-782
-780
-780
-780
-780
-780
-779
-778
-777
-776
-776
-775
-773
-772
-770
-770
-771
-771
-770
-768
-768
-768
-766
-765
-765
-765
-766
-765
-763
-761
-759
-756
-754
-752
-752
-751
-751
-753
-754
-752
-751
-749
-747
-746
-746
-745
-744
-742
-739
-737
-734
-733
-733
-733
-733
-732
-732
-732
-731
-730
-728
-726
-726
-728
-729
-730
-730
-729
-730
-729
-727
-727
-729
-730
-730
-732
-736
-738
-739
-740
-741
-743
-745
-747
-750
-753
-755
-759
-763
-765
-765
-767
-768
-771
-776
-780
-781
-782
-782
-782
-781
-783
-782
-782
-782
-784
-784
-784
-784
-784
-784
-783
-783
-783
-783
-783
-783
-784
-784
-783
-782
-782
-781
-782
-781
-781
-783
-784
-783
-782
-781
-779
-777
-778
-779
-781
-783
-786
-788
-787
-788
-787
-784
-785
-787
-788
-789
-788
-787
-786
-785
-785
-785
-786
-786
-786
-786
-787
-787
-787
-787
-787
-786
-787
-787
-786
-787
-788
-787
-786
-786
-784
-785
-785
-786
-787
-786
-786
-785
-784
-784
-784
-787
-788
-788
-787
-788
-789
-789
-790
-789
-788
-788
-790
-793
-793
-792
-790
-790
-790
-790
-789
-790
-790
-791
-792
-793
-793
-791
-790
-789
-788
-788
-789
-790
-789
-787
-782
-776
-768
-762
-758
-759
-765
-773
-778
-779
-779
-780
-781
-780
-780
-778
-775
-770
-767
-763
-760
-759
-761
-765
-768
-769
-770
-772
-774
-776
-778
-780
-782
-781
-780
-780
-782
-783
-786
-789
-791
-792
-791
-789
-790
-790
-790
-789
-788
-786
-786
-788
-791
-794
-796
-796
-797
-799
-797
-797
-796
-795
-793
-793
-792
-793
-793
-793
-793
-793
-792
-790
-790
-791
-792
-796
-798
-789
-770
-740
-705
-665
-626
-588
-561
-540
-556
-619
-677
-722
-752
-757
-756
-761
-772
-792
-813
-828
-840
-849
-852
-854
-854
-853
-853
-850
-845
-835
-824
-815
-808
-801
-796
-791
-788
-786
-784
-783
-782
-781
-779
-777
-776
-775
-774
-774
-775
-775
-774
-774
-772
-772
-771
-770
-769
-769
-769
-768
-766
-764
-763
-762
-762
-763
-763
-764
-767
-767
-766
-765
-764
-762
-762
-760
-759
-759
-757
-756
-756
-756
-754
-753
-752
-749
-749
-749
-749
-748
-747
-746
-744
-742
-740
-739
-739
-738
-737
-735
-732
-729
-727
-726
-727
-727
-729
-731
-730
-729
-728
-726
-724
-722
-722
-722
-722
-722
-723
-724
-724
-723
-724
-723
-723
-723
-723
-724
-725
-726
-728
-729
-730
-731
-733
-734
-737
-740
-743
-745
-748
-750
-752
-751
-751
-752
-753
-757
-761
-766
-769
-768
-769
-771
-771
-771
-771
-772
-772
-773
-775
-774
-776
-777
-777
-777
-777
-778
-779
-779
-779
-778
-776
-776
-776
-775
-774
-775
-778
-778
-778
-777
-776
-773
-771
-772
-775
-775
-774
-774
-775
-777
-776
-776
-775
-775
-777
-778
-779
-778
-777
-776
-775
-774
-774
-774
-777
-780
-781
-781
-779
-778
-776
-774
-773
-775
-777
-780
-782
-783
-783
-782
-782
-782
-783
-783
-784
-784
-785
-785
-785
-783
-782
-781
-781
-782
-782
-782
-783
-784
-784
-783
-782
-782
-783
-783
-784
-784
-782
-782
-781
-781
-781
-780
-781
-783
-784
-783
-783
-783
-782
-781
-780
-781
-783
-784
-786
-787
-784
-784
-783
-782
-782
-782
-784
-786
-784
-781
-776
-774
-773
-772
-771
-771
-771
-771
-772
-774
-776
-775
-775
-773
-767
-764
-762
-760
-760
-762
-764
-767
-767
-766
-764
-765
-768
-771
-776
-780
-781
-782
-782
-780
-779
-778
-779
-782
-785
-786
-786
-787
-787
-786
-786
-787
-786
-787
-787
-788
-788
-790
-791
-789
-786
-785
-785
-787
-788
-788
-789
-789
-789
-787
-788
-788
-787
-787
-787
-787
-786
-785
-785
-787
-789
-786
-773
-750
-720
-690
-655
-622
-595
-573
-569
-614
-667
-706
-740
-756
-755
-755
-761
-769
-785
-799
-813
-824
-830
-835
-839
-840
-839
-837
-836
-836
-832
-824
-815
-807
-800
-794
-789
-786
-784
-782
-781
-780
-779
-779
-778
-778
-777
-776
-775
-774
-773
-773
-773
-773
-772
-772
-770
-769
-767
-767
-768
-769
-770
-769
-766
-764
-763
-762
-763
-762
-763
-764
-763
-763
-763
-760
-757
-756
-754
-753
-754
-754
-753
-754
-755
-754
-753
-752
-752
-750
-748
-748
-749
-749
-749
-748
-745
-742
-739
-738
-739
-738
-737
-737
-735
-732
-730
-729
-728
-728
-729
-729
-729
-727
-727
-725
-724
-724
-723
-723
-724
-725
-726
-726
-726
-724
-722
-719
-718
-720
-723
-725
-730
-736
-736
-736
-737
-738
-740
-741
-743
-747
-750
-752
-754
-755
-756
-757
-759
-762
-766
-768
-768
-769
-769
-769
-768
-768
-769
-770
-772
-773
-774
-774
-773
-772
-771
-770
-771
-772
-772
-773
-775
-774
-772
-771
-768
-765
-766
-768
-769
-773
-774
-775
-774
-772
-771
-771
-772
-773
-774
-775
-776
-776
-775
-774
-773
-774
-775
-775
-776
-777
-776
-776
-775
-775
-774
-773
-773
-774
-776
-776
-775
-774
-772
-770
-769
-768
-771
-776
-777
-777
-776
-774
-773
-775
-778
-780
-780
-782
-783
-784
-783
-783
-781
-780
-780
-778
-778
-779
-780
-781
-782
-781
-780
-780
-779
-779
-779
-779
-780
-781
-781
-781
-781
-780
-780
-779
-779
-780
-780
-781
-781
-780
-780
-778
-777
-779
-778
-778
-780
-780
-781
-781
-782
-783
-781
-780
-781
-782
-782
-782
-780
-779
-778
-775
-770
-765
-763
-763
-765
-766
-767
-765
-763
-764
-766
-767
-768
-766
-763
-761
-760
-758
-758
-756
-756
-758
-760
-761
-763
-764
-768
-769
-768
-769
-771
-773
-774
-775
-774
-776
-777
-777
-779
-779
-780
-780
-781
-782
-783
-784
-784
-784
-784
-783
-782
-782
-783
-783
-784
-785
-785
-784
-784
-783
-782
-782
-783
-782
-783
-784
-784
-783
-784
-782
-781
-779
-779
-780
-782
-786
-787
-773
-749
-716
-679
-639
-598
-563
-535
-519
-553
-616
-671
-716
-741
-746
-751
-759
-773
-795
-814
-827
-838
-844
-846
-846
-845
-843
-841
-838
-831
-819
-808
-799
-792
-785
-780
-776
-773
-772
-770
-770
-773
-771
-769
-767
-766
-765
-765
-766
-769
-771
-771
-769
-767
-766
-766
-765
-765
-764
-763
-762
-761
-759
-759
-758
-758
-758
-757
-757
-756
-756
-754
-753
-752
-751
-751
-752
-752
-751
-749
-748
-748
-746
-744
-743
-743
-743
-742
-739
-736
-733
-730
-728
-727
-728
-725
-724
-724
-726
-728
-730
-731
-727
-722
-720
-718
-718
-720
-721
-717
-713
-710
-708
-708
-708
-708
-708
-708
-708
-707
-707
-706
-704
-705
-705
-707
-708
-708
-711
-711
-712
-713
-715
-717
-719
-721
-724
-727
-730
-732
-734
-737
-738
-742
-745
-747
-749
-752
-754
-756
-758
-759
-760
-762
-763
-763
-762
-763
-763
-763
-763
-765
-765
-766
-767
-767
-769
-768
-766
-766
-764
-763
-766
-767
-767
-769
-770
-770
-770
-769
-767
-766
-766
-767
-768
-769
-770
-770
-770
-769
-768
-767
-767
-768
-768
-769
-772
-773
-771
-767
-765
-764
-763
-764
-769
-772
-773
-773
-772
-770
-767
-765
-767
-770
-772
-773
-775
-776
-775
-773
-771
-770
-772
-773
-774
-774
-775
-776
-776
-774
-773
-773
-773
-772
-772
-773
-774
-774
-775
-775
-774
-774
-774
-774
-775
-775
-776
-776
-776
-776
-774
-772
-772
-774
-773
-774
-776
-776
-777
-776
-776
-775
-774
-776
-778
-779
-777
-777
-777
-778
-777
-775
-774
-774
-776
-776
-776
-776
-776
-776
-775
-775
-775
-776
-775
-775
-775
-774
-773
-772
-769
-766
-764
-762
-763
-764
-764
-764
-763
-762
-764
-766
-766
-764
-764
-762
-758
-755
-753
-751
-750
-752
-754
-757
-760
-763
-762
-762
-763
-763
-763
-765
-770
-773
-773
-772
-772
-772
-771
-773
-774
-775
-777
-777
-779
-779
-779
-780
-780
-779
-779
-779
-777
-778
-779
-779
-780
-779
-778
-779
-778
-778
-778
-779
-779
-779
-779
-779
-779
-779
-778
-776
-775
-774
-775
-775
-779
-780
-768
-746
-715
-684
-650
-616
-587
-567
-554
-586
-641
-684
-719
-742
-747
-748
-754
-763
-778
-793
-805
-814
-823
-827
-833
-835
-837
-834
-832
-830
-824
-814
-805
-796
-790
-786
-783
-780
-777
-774
-772
-771
-770
-769
-769
-769
-768
-767
-767
-766
-765
-764
-763
-762
-762
-762
-762
-763
-763
-762
-760
-759
-757
-756
-756
-758
-757
-757
-757
-756
-756
-756
-754
-752
-752
-750
-752
-753
-752
-750
-749
-748
-747
-747
-747
-746
-745
-744
-743
-742
-741
-739
-738
-737
-736
-735
-733
-733
-732
-730
-726
-725
-724
-723
-722
-721
-721
-721
-719
-718
-716
-715
-714
-714
-714
-713
-713
-714
-713
-712
-711
-711
-711
-711
-712
-713
-715
-716
-716
-717
-718
-719
-721
-722
-725
-728
-730
-732
-734
-735
-737
-739
-741
-743
-746
-749
-751
-753
-755
-756
-757
-758
-759
-760
-761
-763
-764
-766
-767
-766
-765
-765
-765
-766
-768
-768
-769
-769
-769
-768
-766
-766
-767
-768
-768
-768
-769
-769
-769
-768
-768
-768
-768
-769
-769
-769
-770
-770
-769
-769
-768
-768
-767
-768
-769
-770
-770
-771
-771
-769
-768
-768
-769
-769
-770
-772
-771
-772
-772
-771
-770
-769
-770
-771
-771
-771
-771
-771
-771
-771
-772
-773
-773
-772
-773
-774
-774
-774
-773
-773
-773
-772
-773
-774
-774
-775
-776
-775
-774
-774
-774
-774
-773
-774
-775
-776
-776
-775
-775
-774
-774
-774
-774
-775
-776
-777
-778
-777
-775
-774
-775
-775
-774
-775
-777
-777
-777
-777
-776
-775
-775
-775
-775
-776
-777
-777
-777
-777
-777
-775
-775
-775
-775
-776
-777
-777
-775
-774
-771
-767
-763
-759
-758
-760
-761
-761
-761
-759
-759
-761
-763
-764
-765
-762
-760
-757
-756
-752
-751
-752
-753
-755
-757
-760
-761
-761
-762
-761
-762
-763
-764
-767
-769
-768
-767
-767
-768
-770
-773
-777
-779
-778
-777
-777
-777
-777
-777
-779
-779
-778
-777
-778
-777
-777
-778
-779
-779
-780
-779
-777
-774
-775
-776
-777
-777
-779
-778
-777
-776
-774
-773
-773
-773
-776
-777
-780
-777
-760
-733
-700
-664
-627
-590
-558
-533
-526
-572
-631
-677
-717
-737
-741
-745
-754
-769
-790
-804
-816
-826
-831
-834
-838
-838
-833
-830
-827
-821
-810
-800
-791
-785
-779
-776
-774
-772
-769
-767
-766
-764
-763
-762
-761
-761
-762
-761
-761
-761
-760
-758
-757
-756
-756
-756
-755
-756
-756
-755
-754
-753
-751
-750
-751
-752
-749
-748
-749
-747
-746
-746
-746
-745
-744
-743
-744
-744
-742
-741
-739
-737
-736
-735
-735
-735
-735
-735
-732
-732
-730
-727
-725
-724
-724
-723
-722
-719
-718
-717
-714
-712
-709
-708
-709
-707
-706
-705
-705
-703
-702
-701
-699
-698
-698
-698
-699
-698
-698
-696
-696
-696
-695
-696
-697
-698
-700
-701
-702
-703
-704
-704
-707
-708
-710
-714
-718
-721
-723
-725
-727
-729
-732
-735
-737
-739
-742
-745
-746
-747
-748
-750
-751
-753
-755
-756
-757
-759
-759
-758
-758
-758
-759
-759
-759
-760
-761
-761
-761
-760
-760
-759
-758
-758
-759
-761
-761
-761
-761
-760
-759
-759
-759
-759
-760
-761
-761
-761
-761
-760
-760
-760
-760
-760
-761
-761
-762
-762
-762
-762
-762
-761
-762
-762
-763
-764
-764
-764
-764
-763
-762
-762
-763
-762
-763
-765
-765
-767
-765
-764
-764
-764
-765
-766
-766
-767
-767
-768
-768
-767
-766
-766
-765
-766
-768
-769
-769
-769
-769
-768
-766
-766
-767
-767
-768
-769
-769
-769
-769
-768
-768
-769
-768
-769
-769
-770
-770
-771
-771
-769
-768
-768
-768
-769
-770
-771
-771
-770
-770
-770
-769
-769
-769
-770
-771
-771
-771
-771
-771
-770
-769
-769
-769
-769
-770
-771
-771
-771
-770
-768
-767
-765
-762
-760
-757
-755
-754
-755
-755
-755
-753
-754
-756
-758
-759
-760
-758
-755
-751
-749
-747
-745
-747
-747
-750
-754
-755
-754
-754
-754
-755
-756
-758
-762
-765
-765
-764
-763
-764
-765
-766
-768
-770
-771
-772
-772
-772
-772
-772
-771
-771
-771
-772
-773
-773
-774
-774
-773
-773
-772
-772
-771
-771
-772
-772
-772
-772
-772
-772
-770
-769
-769
-769
-770
-769
-771
-773
-773
-774
-769
-755
-730
-696
-659
-621
-582
-549
-522
-513
-555
-617
-667
-708
-728
-733
-739
-748
-762
-784
-800
-812
-823
-830
-833
-834
-833
-830
-828
-823
-816
-806
-797
-789
-782
-777
-774
-769
-767
-764
-762
-761
-760
-760
-759
-759
-758
-758
-758
-757
-756
-754
-754
-754
-753
-753
-753
-752
-751
-750
-749
-749
-748
-748
-749
-749
-748
-747
-746
-745
-744
-744
-744
-744
-743
-742
-742
-741
-740
-738
-738
-735
-734
-735
-735
-735
-734
-732
-730
-729
-727
-726
-724
-724
-723
-722
-720
-719
-718
-715
-714
-713
-712
-711
-710
-709
-707
-704
-703
-701
-700
-700
-699
-699
-699
-700
-699
-696
-695
-694
-694
-693
-692
-693
-694
-694
-695
-695
-696
-698
-699
-699
-702
-704
-707
-710
-712
-715
-717
-720
-722
-724
-727
-730
-732
-735
-738
-740
-741
-742
-744
-746
-748
-751
-753
-754
-756
-757
-756
-755
-755
-756
-757
-759
-759
-760
-760
-759
-759
-759
-759
-759
-758
-758
-759
-759
-758
-758
-759
-758
-758
-758
-759
-760
-759
-760
-759
-759
-758
-757
-756
-757
-758
-758
-760
-760
-760
-760
-760
-758
-758
-758
-759
-761
-761
-762
-763
-762
-761
-760
-760
-760
-760
-761
-762
-763
-763
-763
-763
-762
-761
-762
-762
-763
-764
-765
-765
-764
-764
-764
-764
-764
-764
-764
-765
-765
-765
-765
-765
-765
-765
-766
-767
-768
-766
-765
-765
-766
-766
-765
-766
-766
-769
-768
-768
-768
-769
-769
-768
-767
-767
-766
-766
-768
-768
-768
-769
-768
-768
-768
-768
-769
-769
-769
-770
-769
-768
-767
-765
-763
-760
-757
-755
-755
-755
-755
-755
-754
-754
-755
-757
-758
-758
-758
-755
-753
-749
-747
-746
-745
-746
-749
-752
-754
-754
-754
-754
-753
-753
-754
-759
-762
-764
-764
-763
-764
-764
-765
-766
-768
-769
-770
-771
-771
-772
-772
-772
-771
-769
-769
-770
-772
-772
-772
-772
-772
-772
-771
-770
-770
-771
-771
-770
-771
-772
-771
-771
-770
-769
-769
-768
-766
-766
-767
-768
-770
-771
-762
-743
-715
-684
-652
-618
-589
-568
-550
-570
-622
-665
-701
-728
-736
-736
-741
-749
-762
-777
-788
-799
-807
-811
-820
-826
-828
-826
-823
-820
-815
-806
-797
-789
-783
-779
-774
-771
-768
-766
-765
-763
-762
-761
-760
-760
-760
-759
-758
-758
-756
-755
-755
-755
-755
-754
-754
-754
-753
-752
-751
-750
-750
-750
-749
-749
-749
-749
-748
-747
-746
-745
-744
-744
-744
-744
-745
-744
-743
-742
-741
-739
-738
-737
-737
-737
-736
-735
-734
-733
-731
-730
-728
-728
-728
-726
-725
-723
-721
-720
-718
-716
-716
-714
-712
-712
-711
-710
-709
-707
-706
-705
-704
-704
-704
-703
-703
-703
-703
-702
-701
-700
-700
-701
-702
-703
-703
-703
-704
-704
-705
-707
-709
-711
-713
-716
-719
-720
-722
-725
-727
-729
-732
-734
-737
-741
-743
-743
-744
-745
-746
-748
-749
-751
-752
-753
-753
-754
-754
-754
-755
-756
-756
-756
-758
-758
-758
-759
-758
-757
-757
-756
-756
-757
-758
-759
-759
-758
-757
-757
-757
-757
-758
-758
-759
-759
-759
-758
-758
-757
-757
-758
-758
-758
-759
-761
-761
-761
-759
-759
-759
-759
-760
-760
-761
-761
-762
-761
-761
-760
-761
-761
-761
-762
-762
-762
-763
-763
-762
-761
-762
-762
-762
-763
-764
-764
-765
-765
-764
-764
-763
-762
-762
-763
-764
-764
-765
-764
-763
-763
-763
-764
-765
-766
-766
-765
-765
-766
-765
-765
-764
-764
-765
-766
-768
-769
-768
-767
-766
-765
-765
-766
-767
-768
-767
-767
-768
-767
-765
-765
-765
-766
-767
-768
-768
-768
-768
-767
-766
-766
-765
-766
-766
-765
-764
-762
-758
-754
-750
-748
-748
-749
-751
-751
-749
-750
-754
-755
-754
-752
-750
-747
-744
-744
-743
-742
-743
-744
-747
-748
-749
-749
-751
-752
-754
-756
-758
-759
-760
-760
-759
-760
-761
-763
-765
-767
-768
-767
-766
-766
-766
-767
-769
-769
-769
-769
-769
-768
-768
-768
-768
-768
-768
-769
-769
-769
-767
-768
-768
-767
-767
-767
-769
-770
-769
-768
-767
-766
-764
-765
-767
-770
-773
-764
-745
-717
-680
-641
-600
-559
-527
-503
-509
-567
-628
-678
-716
-728
-732
-739
-750
-769
-791
-807
-820
-829
-832
-832
-831
-828
-826
-824
-819
-809
-798
-787
-780
-773
-767
-763
-759
-758
-759
-759
-759
-757
-756
-754
-752
-752
-753
-753
-752
-753
-751
-751
-749
-747
-746
-746
-746
-746
-746
-746
-746
-745
-743
-741
-741
-741
-741
-741
-741
-741
-740
-739
-737
-735
-735
-734
-735
-734
-733
-734
-733
-731
-729
-728
-727
-725
-724
-724
-724
-723
-721
-718
-716
-714
-712
-710
-711
-710
-708
-706
-704
-703
-701
-699
-696
-695
-694
-693
-691
-691
-690
-690
-688
-686
-686
-686
-685
-686
-685
-684
-684
-684
-684
-683
-683
-685
-686
-688
-690
-691
-693
-696
-697
-700
-702
-705
-710
-711
-715
-718
-721
-723
-725
-726
-730
-732
-735
-737
-740
-742
-743
-743
-745
-745
-746
-748
-749
-751
-752
-753
-752
-753
-753
-752
-752
-752
-753
-754
-754
-754
-753
-752
-750
-750
-752
-753
-752
-753
-753
-753
-752
-752
-753
-753
-753
-753
-753
-754
-755
-755
-755
-754
-753
-754
-754
-755
-756
-757
-755
-756
-756
-757
-756
-756
-756
-757
-759
-760
-760
-760
-760
-759
-758
-757
-757
-757
-757
-759
-761
-761
-760
-759
-759
-759
-759
-759
-760
-760
-760
-762
-761
-761
-760
-760
-761
-761
-762
-764
-765
-765
-765
-764
-764
-763
-764
-765
-766
-766
-766
-767
-765
-764
-764
-763
-764
-765
-766
-766
-766
-767
-767
-766
-766
-766
-766
-768
-768
-768
-768
-768
-768
-767
-765
-763
-760
-757
-753
-752
-753
-753
-752
-752
-752
-752
-754
-758
-758
-758
-757
-753
-749
-746
-743
-741
-741
-744
-747
-750
-751
-752
-753
-754
-753
-754
-756
-761
-762
-762
-763
-763
-764
-764
-765
-767
-769
-770
-771
-773
-773
-773
-772
-772
-772
-771
-771
-772
-772
-772
-773
-773
-773
-772
-772
-773
-774
-774
-775
-776
-776
-774
-773
-774
-773
-772
-772
-772
-771
-770
-770
-773
-774
-767
-751
-727
-694
-661
-627
-594
-569
-548
-553
-606
-658
-696
-730
-744
-744
-747
-754
-765
-782
-793
-804
-814
-821
-827
-833
-835
-832
-829
-826
-821
-812
-804
-796
-791
-785
-780
-777
-775
-773
-770
-768
-766
-766
-766
-765
-765
-764
-764
-763
-762
-761
-760
-761
-760
-760
-760
-759
-759
-758
-755
-754
-754
-755
-755
-756
-755
-754
-754
-752
-751
-751
-750
-751
-750
-750
-751
-749
-747
-746
-745
-744
-745
-744
-743
-744
-743
-742
-740
-738
-736
-736
-735
-735
-734
-733
-732
-729
-727
-725
-723
-721
-720
-719
-719
-718
-717
-715
-713
-712
-711
-711
-711
-710
-710
-710
-709
-708
-708
-707
-706
-705
-704
-705
-708
-709
-710
-711
-711
-711
-713
-714
-717
-719
-722
-725
-727
-729
-732
-733
-735
-737
-740
-743
-745
-748
-749
-752
-753
-754
-755
-757
-759
-760
-762
-764
-764
-765
-766
-766
-765
-764
-766
-766
-767
-768
-768
-768
-768
-767
-767
-767
-767
-770
-770
-770
-769
-769
-769
-768
-767
-768
-768
-769
-769
-770
-769
-769
-768
-767
-768
-768
-768
-768
-770
-770
-771
-770
-769
-768
-769
-769
-770
-770
-771
-772
-772
-772
-771
-770
-770
-770
-771
-773
-773
-773
-772
-773
-772
-771
-772
-773
-774
-774
-775
-774
-774
-774
-773
-773
-773
-773
-775
-776
-777
-776
-776
-776
-775
-775
-775
-776
-776
-776
-777
-777
-778
-777
-776
-774
-775
-776
-776
-778
-778
-779
-779
-777
-776
-777
-777
-777
-778
-780
-781
-781
-779
-778
-777
-777
-776
-775
-774
-773
-768
-764
-762
-760
-759
-760
-761
-761
-760
-761
-764
-765
-764
-763
-761
-757
-753
-751
-750
-750
-753
-755
-757
-758
-758
-760
-762
-764
-766
-768
-772
-774
-774
-773
-773
-773
-774
-776
-779
-781
-782
-782
-782
-782
-782
-782
-782
-782
-784
-784
-784
-785
-784
-784
-784
-783
-783
-784
-785
-785
-786
-785
-784
-783
-782
-782
-783
-784
-784
-784
-784
-783
-784
-784
-785
-788
-785
-770
-746
-713
-675
-636
-595
-564
-537
-528
-572
-635
-684
-727
-747
-751
-756
-764
-777
-798
-814
-828
-839
-844
-847
-849
-846
-843
-840
-835
-829
-820
-811
-804
-798
-791
-785
-782
-779
-777
-776
-775
-775
-775
-774
-772
-772
-771
-770
-769
-770
-769
-770
-769
-769
-768
-767
-766
-764
-763
-764
-765
-765
-764
-763
-762
-761
-761
-760
-759
-758
-759
-759
-759
-758
-756
-755
-754
-753
-752
-752
-752
-752
-751
-750
-749
-747
-744
-743
-742
-741
-740
-740
-738
-737
-735
-733
-731
-729
-727
-726
-725
-724
-722
-720
-718
-717
-714
-714
-714
-712
-711
-711
-710
-710
-709
-707
-706
-705
-704
-705
-705
-706
-707
-708
-708
-707
-707
-709
-712
-714
-717
-718
-721
-723
-726
-728
-731
-734
-737
-741
-744
-746
-749
-752
-753
-754
-756
-758
-761
-763
-766
-768
-769
-769
-771
-770
-770
-771
-772
-774
-774
-774
-775
-775
-775
-774
-774
-774
-774
-775
-775
-776
-776
-774
-774
-774
-773
-774
-774
-775
-775
-776
-775
-775
-775
-774
-774
-774
-775
-775
-776
-777
-777
-777
-775
-775
-776
-776
-776
-777
-778
-779
-779
-779
-779
-777
-777
-777
-778
-779
-780
-780
-780
-779
-779
-779
-778
-778
-779
-780
-781
-782
-782
-781
-780
-780
-779
-780
-781
-783
-783
-783
-783
-783
-781
-781
-782
-782
-782
-784
-785
-785
-785
-785
-784
-783
-783
-784
-785
-786
-787
-787
-786
-785
-784
-783
-784
-785
-786
-787
-788
-787
-786
-786
-785
-785
-784
-785
-786
-788
-788
-787
-787
-785
-785
-785
-785
-785
-785
-785
-784
-783
-778
-772
-769
-766
-768
-769
-771
-772
-772
-772
-772
-771
-769
-766
-760
-754
-752
-752
-754
-757
-761
-766
-771
-772
-773
-773
-775
-777
-779
-782
-784
-786
-786
-785
-784
-785
-786
-788
-790
-792
-791
-790
-789
-788
-788
-790
-792
-794
-792
-792
-792
-791
-789
-789
-789
-791
-792
-793
-793
-793
-791
-790
-789
-789
-789
-791
-793
-792
-792
-792
-790
-787
-786
-786
-788
-791
-795
-790
-773
-745
-709
-671
-631
-593
-565
-543
-547
-603
-661
-705
-739
-751
-753
-756
-765
-781
-804
-820
-833
-842
-846
-848
-848
-847
-847
-846
-844
-838
-829
-818
-808
-801
-796
-792
-789
-788
-787
-788
-786
-783
-781
-779
-778
-777
-777
-777
-779
-779
-778
-776
-774
-774
-773
-773
-773
-773
-771
-771
-771
-770
-770
-771
-769
-768
-768
-768
-769
-769
-768
-767
-766
-764
-763
-762
-762
-762
-762
-762
-760
-759
-756
-754
-752
-752
-753
-753
-752
-751
-750
-748
-745
-744
-743
-742
-741
-739
-738
-737
-735
-732
-730
-728
-727
-726
-725
-725
-724
-722
-720
-718
-716
-715
-716
-717
-716
-718
-719
-719
-717
-716
-715
-714
-713
-715
-716
-718
-721
-723
-725
-726
-727
-729
-730
-734
-737
-741
-745
-748
-750
-752
-752
-753
-756
-760
-764
-766
-769
-771
-771
-771
-771
-771
-772
-774
-778
-780
-782
-782
-781
-781
-780
-780
-780
-781
-782
-783
-783
-782
-780
-778
-777
-777
-779
-782
-783
-784
-785
-784
-783
-781
-780
-778
-778
-781
-783
-783
-782
-780
-780
-780
-779
-779
-780
-781
-782
-783
-783
-783
-782
-782
-781
-780
-780
-781
-783
-783
-784
-784
-783
-781
-780
-779
-780
-780
-780
-782
-783
-782
-780
-781
-782
-783
-786
-788
-789
-788
-788
-788
-789
-788
-786
-786
-786
-787
-789
-790
-790
-790
-789
-788
-787
-786
-787
-788
-789
-790
-790
-790
-789
-788
-787
-786
-787
-788
-789
-789
-789
-788
-786
-784
-783
-786
-788
-791
-793
-795
-794
-793
-792
-791
-789
-789
-788
-788
-788
-786
-782
-778
-774
-773
-774
-774
-775
-776
-775
-777
-780
-781
-781
-779
-775
-771
-770
-768
-766
-767
-768
-769
-771
-771
-771
-770
-772
-774
-778
-781
-785
-788
-787
-785
-785
-785
-786
-788
-790
-792
-793
-793
-793
-792
-792
-793
-793
-794
-795
-795
-794
-795
-794
-794
-795
-795
-796
-797
-797
-796
-796
-796
-794
-793
-793
-793
-794
-794
-794
-794
-794
-791
-789
-789
-789
-792
-797
-795
-780
-755
-724
-688
-649
-611
-581
-559
-556
-606
-665
-709
-746
-763
-762
-764
-770
-782
-801
-816
-829
-840
-846
-850
-853
-853
-853
-852
-850
-844
-835
-825
-815
-808
-800
-795
-792
-790
-788
-787
-786
-787
-786
-784
-783
-780
-779
-779
-780
-780
-780
-780
-778
-777
-775
-774
-774
-775
-775
-775
-774
-773
-771
-769
-768
-767
-768
-771
-773
-774
-773
-771
-769
-767
-765
-763
-762
-762
-763
-764
-764
-762
-760
-758
-755
-754
-753
-753
-753
-752
-751
-749
-747
-744
-741
-739
-738
-738
-737
-735
-733
-731
-729
-725
-722
-721
-721
-722
-723
-722
-723
-722
-719
-717
-715
-714
-714
-714
-714
-715
-714
-713
-713
-712
-712
-715
-716
-719
-722
-724
-726
-728
-728
-730
-731
-733
-736
-740
-744
-747
-750
-752
-754
-755
-755
-757
-759
-763
-766
-769
-772
-773
-772
-772
-772
-772
-772
-774
-775
-776
-778
-779
-778
-777
-776
-776
-778
-780
-783
-784
-784
-781
-780
-779
-778
-778
-779
-780
-781
-781
-782
-780
-779
-778
-777
-778
-779
-779
-780
-782
-782
-781
-779
-778
-778
-778
-778
-779
-781
-781
-780
-781
-780
-778
-778
-779
-780
-781
-782
-783
-783
-782
-781
-779
-778
-778
-779
-781
-781
-781
-780
-777
-775
-776
-779
-782
-785
-786
-788
-789
-789
-788
-787
-786
-786
-785
-785
-786
-786
-787
-786
-786
-785
-784
-783
-784
-785
-786
-787
-787
-787
-786
-785
-785
-785
-785
-785
-785
-786
-787
-788
-788
-786
-784
-785
-785
-786
-788
-788
-788
-787
-785
-783
-783
-783
-783
-785
-787
-788
-788
-788
-788
-786
-785
-784
-784
-785
-786
-787
-788
-787
-786
-786
-785
-784
-783
-782
-781
-780
-774
-771
-767
-767
-768
-768
-767
-768
-769
-772
-774
-777
-777
-775
-772
-767
-764
-763
-763
-763
-765
-768
-768
-768
-767
-767
-769
-771
-773
-776
-779
-781
-780
-778
-776
-779
-780
-780
-783
-785
-787
-786
-784
-782
-782
-784
-785
-787
-789
-790
-791
-791
-789
-787
-785
-786
-786
-786
-788
-789
-789
-789
-786
-784
-784
-784
-785
-787
-789
-789
-787
-784
-782
-782
-784
-786
-790
-788
-774
-750
-715
-677
-637
-596
-561
-534
-525
-570
-634
-684
-725
-746
-748
-751
-760
-777
-799
-817
-831
-840
-846
-846
-846
-844
-845
-845
-844
-838
-828
-819
-810
-802
-796
-791
-786
-784
-783
-782
-781
-781
-780
-777
-774
-770
-769
-771
-773
-775
-776
-776
-774
-773
-770
-768
-767
-768
-768
-769
-769
-769
-767
-765
-762
-760
-758
-758
-762
-764
-765
-766
-763
-759
-756
-754
-754
-755
-756
-756
-757
-756
-754
-752
-749
-747
-746
-746
-747
-747
-746
-744
-742
-740
-737
-734
-732
-730
-729
-730
-729
-728
-724
-721
-719
-716
-714
-713
-713
-713
-714
-713
-712
-708
-704
-701
-702
-702
-703
-704
-705
-704
-702
-701
-702
-705
-707
-710
-713
-715
-717
-718
-720
-721
-723
-725
-728
-731
-735
-738
-740
-743
-744
-745
-747
-750
-752
-755
-758
-761
-764
-765
-765
-764
-763
-765
-767
-769
-772
-773
-775
-775
-774
-772
-770
-770
-770
-770
-772
-774
-776
-775
-774
-775
-774
-772
-771
-772
-774
-775
-776
-775
-774
-773
-772
-771
-771
-772
-773
-773
-773
-774
-772
-770
-769
-770
-771
-771
-772
-773
-775
-774
-774
-772
-770
-770
-770
-770
-772
-775
-776
-775
-773
-770
-766
-766
-768
-771
-774
-777
-781
-782
-782
-781
-780
-777
-778
-779
-779
-780
-780
-779
-778
-778
-776
-777
-777
-778
-780
-780
-780
-779
-778
-777
-776
-778
-780
-780
-780
-781
-782
-780
-778
-777
-776
-777
-780
-782
-784
-784
-784
-783
-780
-778
-776
-777
-779
-781
-781
-783
-784
-782
-780
-779
-777
-775
-777
-779
-781
-782
-784
-785
-783
-782
-782
-782
-782
-782
-781
-780
-776
-772
-769
-766
-766
-766
-768
-769
-768
-768
-770
-772
-772
-771
-768
-764
-764
-763
-762
-761
-760
-760
-761
-764
-766
-765
-767
-769
-770
-771
-772
-774
-774
-774
-772
-773
-776
-778
-781
-783
-785
-784
-782
-781
-779
-781
-783
-784
-785
-783
-783
-783
-784
-785
-786
-786
-787
-789
-790
-789
-788
-787
-785
-784
-784
-784
-786
-787
-787
-786
-784
-782
-779
-777
-777
-779
-784
-787
-782
-764
-735
-702
-667
-631
-599
-576
-557
-570
-626
-677
-714
-742
-750
-751
-755
-764
-780
-798
-811
-822
-830
-832
-835
-839
-841
-843
-843
-842
-837
-829
-817
-807
-800
-794
-789
-785
-784
-783
-782
-780
-778
-775
-773
-772
-773
-775
-775
-775
-775
-773
-772
-771
-768
-767
-767
-768
-768
-769
-768
-768
-767
-765
-763
-761
-761
-762
-762
-764
-764
-762
-761
-759
-758
-757
-757
-757
-757
-757
-756
-755
-753
-752
-750
-749
-749
-748
-746
-745
-742
-739
-737
-736
-736
-737
-737
-737
-736
-734
-732
-728
-726
-722
-720
-719
-719
-719
-719
-716
-714
-712
-709
-708
-708
-707
-708
-709
-710
-710
-709
-708
-708
-707
-705
-706
-709
-711
-713
-716
-717
-718
-719
-719
-721
-725
-729
-733
-737
-740
-742
-744
-745
-745
-745
-745
-748
-754
-758
-763
-767
-767
-767
-765
-765
-766
-768
-771
-773
-775
-776
-775
-774
-772
-772
-771
-774
-777
-779
-780
-779
-778
-775
-773
-773
-773
-774
-776
-777
-777
-777
-776
-774
-772
-771
-773
-774
-776
-777
-778
-777
-775
-775
-774
-773
-772
-773
-775
-775
-775
-776
-776
-775
-775
-775
-775
-777
-779
-780
-782
-781
-780
-778
-776
-776
-777
-779
-780
-781
-782
-782
-782
-781
-779
-778
-779
-781
-783
-783
-783
-782
-781
-779
-777
-778
-780
-780
-781
-783
-783
-782
-781
-780
-779
-781
-782
-783
-785
-788
-789
-787
-786
-784
-783
-783
-784
-787
-789
-788
-787
-786
-784
-783
-783
-783
-783
-785
-787
-788
-788
-787
-785
-784
-783
-783
-784
-786
-788
-788
-787
-786
-786
-784
-784
-784
-784
-786
-788
-788
-788
-787
-785
-784
-783
-782
-782
-783
-784
-783
-780
-776
-770
-768
-767
-767
-770
-772
-771
-771
-773
-773
-773
-771
-766
-763
-762
-763
-764
-766
-769
-771
-773
-772
-770
-770
-773
-774
-776
-778
-780
-781
-781
-780
-779
-781
-782
-783
-785
-787
-788
-788
-787
-786
-785
-786
-787
-788
-789
-790
-790
-789
-788
-787
-787
-788
-789
-791
-791
-791
-789
-787
-785
-783
-783
-784
-786
-789
-789
-791
-790
-787
-786
-785
-786
-787
-790
-793
-783
-760
-727
-688
-647
-605
-566
-536
-513
-533
-595
-654
-704
-737
-745
-749
-756
-769
-792
-814
-830
-842
-850
-851
-851
-849
-846
-844
-842
-837
-826
-815
-805
-796
-789
-784
-782
-782
-782
-779
-777
-777
-777
-776
-774
-772
-771
-773
-773
-773
-773
-773
-771
-769
-768
-766
-765
-766
-766
-767
-767
-765
-765
-762
-759
-758
-757
-757
-758
-760
-760
-758
-756
-754
-753
-752
-751
-752
-755
-756
-754
-753
-749
-746
-743
-741
-742
-742
-743
-743
-743
-741
-738
-734
-731
-729
-728
-727
-727
-727
-725
-722
-717
-714
-711
-709
-709
-709
-708
-707
-706
-705
-703
-700
-696
-694
-692
-694
-696
-696
-694
-693
-693
-694
-695
-697
-699
-701
-701
-702
-703
-705
-708
-709
-712
-716
-720
-724
-729
-732
-734
-736
-737
-739
-741
-744
-746
-750
-754
-756
-758
-759
-759
-760
-760
-760
-762
-764
-766
-767
-768
-769
-770
-769
-769
-768
-769
-770
-771
-771
-771
-771
-771
-771
-770
-768
-768
-767
-768
-769
-768
-769
-769
-767
-769
-769
-769
-768
-768
-769
-768
-766
-765
-764
-764
-766
-767
-770
-770
-771
-773
-772
-770
-769
-768
-766
-765
-767
-770
-771
-771
-770
-769
-768
-769
-770
-771
-773
-773
-772
-773
-773
-770
-768
-767
-767
-770
-772
-774
-775
-776
-776
-774
-773
-773
-772
-774
-775
-776
-775
-774
-773
-772
-771
-772
-774
-775
-776
-777
-776
-775
-775
-774
-773
-772
-773
-774
-776
-777
-778
-777
-775
-774
-773
-774
-775
-776
-777
-778
-778
-777
-776
-776
-774
-774
-774
-775
-777
-779
-780
-778
-775
-773
-773
-774
-776
-778
-781
-784
-782
-781
-778
-775
-773
-772
-771
-771
-769
-768
-768
-765
-763
-763
-763
-763
-766
-769
-772
-771
-767
-763
-759
-757
-756
-754
-753
-755
-758
-761
-763
-763
-762
-764
-764
-764
-766
-769
-772
-775
-776
-774
-773
-771
-772
-774
-777
-780
-782
-784
-784
-782
-780
-778
-778
-779
-782
-785
-786
-786
-785
-783
-782
-781
-779
-779
-780
-781
-782
-783
-784
-783
-781
-781
-780
-780
-781
-782
-780
-779
-779
-779
-778
-779
-777
-766
-745
-716
-684
-649
-613
-582
-558
-545
-582
-642
-689
-726
-749
-750
-749
-753
-759
-776
-791
-803
-817
-828
-834
-841
-843
-840
-836
-832
-830
-825
-819
-810
-803
-795
-789
-782
-778
-774
-771
-770
-773
-774
-775
-775
-774
-772
-770
-768
-767
-767
-768
-769
-769
-768
-767
-765
-765
-764
-761
-761
-763
-763
-762
-760
-760
-758
-758
-759
-759
-759
-758
-759
-760
-759
-758
-755
-753
-752
-751
-751
-752
-751
-752
-751
-748
-745
-742
-742
-741
-740
-741
-740
-738
-736
-733
-730
-727
-726
-725
-724
-723
-724
-723
-722
-717
-714
-711
-710
-711
-711
-711
-711
-709
-707
-704
-700
-697
-696
-697
-698
-703
-707
-707
-707
-706
-705
-703
-702
-705
-709
-714
-719
-723
-727
-727
-728
-729
-732
-735
-738
-742
-745
-747
-749
-750
-750
-751
-754
-756
-759
-761
-764
-765
-766
-765
-765
-764
-766
-768
-770
-772
-772
-772
-771
-769
-767
-767
-767
-768
-770
-771
-773
-775
-772
-770
-770
-769
-769
-770
-772
-774
-775
-775
-774
-773
-771
-769
-770
-771
-773
-774
-774
-774
-773
-772
-770
-769
-769
-771
-772
-774
-774
-774
-773
-772
-771
-770
-770
-772
-774
-775
-776
-776
-775
-773
-771
-770
-770
-771
-773
-773
-773
-773
-771
-772
-772
-774
-776
-778
-780
-781
-781
-781
-779
-777
-776
-775
-775
-776
-777
-779
-780
-780
-778
-776
-775
-775
-776
-777
-779
-781
-780
-777
-773
-771
-770
-772
-777
-782
-783
-785
-786
-783
-781
-779
-777
-777
-776
-777
-779
-781
-783
-784
-783
-780
-778
-777
-777
-779
-781
-782
-783
-783
-781
-780
-778
-777
-777
-779
-782
-782
-782
-782
-779
-776
-774
-772
-769
-767
-767
-766
-766
-766
-764
-763
-763
-764
-767
-770
-770
-767
-762
-758
-756
-754
-752
-755
-758
-762
-764
-765
-766
-767
-767
-767
-769
-772
-775
-777
-779
-778
-778
-777
-776
-776
-777
-780
-782
-783
-784
-785
-785
-784
-783
-781
-780
-781
-783
-784
-785
-785
-786
-785
-783
-781
-781
-780
-781
-783
-785
-786
-785
-784
-782
-780
-780
-779
-778
-779
-781
-782
-782
-783
-785
-777
-755
-725
-689
-651
-610
-570
-537
-510
-519
-576
-637
-689
-729
-743
-749
-755
-765
-784
-803
-818
-831
-842
-848
-851
-851
-849
-845
-840
-833
-822
-811
-804
-796
-791
-786
-782
-779
-777
-774
-772
-770
-769
-768
-769
-770
-770
-769
-768
-766
-764
-764
-764
-762
-762
-763
-763
-763
-764
-762
-761
-759
-757
-757
-759
-760
-759
-757
-755
-755
-755
-755
-754
-752
-751
-751
-751
-748
-746
-742
-739
-739
-741
-743
-746
-747
-744
-741
-739
-736
-733
-732
-732
-732
-732
-731
-730
-727
-722
-718
-716
-715
-714
-712
-711
-710
-709
-706
-704
-701
-699
-696
-695
-692
-690
-689
-688
-686
-686
-688
-692
-693
-695
-697
-697
-696
-698
-698
-698
-699
-700
-703
-706
-710
-713
-717
-718
-720
-721
-723
-725
-728
-734
-738
-740
-743
-744
-746
-747
-749
-752
-753
-755
-759
-762
-763
-762
-762
-761
-758
-759
-761
-766
-769
-771
-770
-768
-767
-765
-765
-765
-766
-768
-768
-769
-767
-766
-764
-762
-761
-761
-764
-767
-768
-768
-768
-768
-766
-766
-764
-764
-765
-766
-767
-768
-768
-767
-766
-764
-764
-763
-763
-764
-766
-767
-767
-766
-764
-764
-764
-764
-764
-766
-767
-767
-766
-767
-766
-766
-766
-766
-768
-769
-770
-771
-772
-770
-767
-767
-767
-768
-769
-771
-772
-772
-771
-771
-769
-767
-767
-766
-767
-769
-771
-773
-774
-773
-772
-770
-770
-769
-769
-770
-771
-771
-770
-770
-770
-769
-770
-770
-770
-770
-770
-771
-771
-771
-771
-772
-773
-773
-774
-775
-775
-775
-775
-775
-773
-771
-770
-771
-772
-774
-775
-776
-776
-774
-773
-771
-768
-766
-766
-764
-763
-763
-762
-759
-758
-757
-757
-760
-764
-764
-763
-760
-755
-752
-748
-746
-747
-749
-754
-759
-762
-762
-759
-758
-760
-759
-759
-762
-766
-770
-772
-770
-769
-769
-767
-766
-767
-770
-773
-775
-777
-779
-778
-778
-777
-775
-776
-777
-777
-777
-778
-779
-778
-776
-774
-775
-775
-775
-775
-777
-778
-777
-776
-776
-774
-772
-773
-773
-775
-777
-775
-776
-775
-774
-776
-772
-756
-733
-704
-673
-640
-607
-578
-555
-547
-590
-644
-687
-723
-741
-743
-746
-751
-760
-777
-789
-801
-812
-820
-825
-831
-835
-835
-830
-826
-824
-817
-809
-800
-793
-786
-781
-778
-775
-771
-769
-769
-770
-769
-769
-767
-766
-765
-765
-765
-765
-765
-764
-765
-765
-764
-763
-760
-758
-758
-757
-757
-757
-758
-759
-759
-758
-755
-751
-750
-751
-750
-752
-753
-752
-752
-751
-748
-746
-744
-745
-745
-745
-744
-744
-743
-741
-738
-736
-735
-733
-731
-731
-732
-731
-730
-729
-727
-725
-723
-721
-719
-718
-718
-717
-714
-710
-709
-707
-705
-703
-703
-702
-703
-701
-700
-698
-696
-694
-692
-691
-692
-694
-695
-697
-699
-700
-698
-698
-699
-700
-705
-711
-714
-716
-717
-718
-719
-722
-723
-725
-729
-735
-740
-743
-745
-747
-747
-748
-749
-751
-754
-756
-758
-760
-761
-760
-760
-760
-761
-763
-764
-765
-766
-767
-767
-763
-761
-761
-762
-764
-767
-768
-769
-768
-767
-765
-764
-763
-762
-762
-764
-765
-767
-768
-766
-765
-763
-762
-763
-765
-768
-769
-769
-769
-767
-766
-764
-764
-763
-763
-765
-766
-768
-768
-767
-766
-765
-763
-764
-765
-766
-766
-767
-768
-768
-766
-765
-765
-765
-766
-769
-772
-773
-775
-772
-768
-767
-767
-768
-769
-771
-770
-771
-772
-772
-771
-769
-768
-768
-769
-770
-771
-772
-771
-771
-770
-769
-769
-770
-771
-772
-773
-775
-775
-773
-771
-770
-770
-770
-771
-772
-773
-773
-772
-770
-766
-765
-768
-771
-775
-776
-775
-776
-776
-774
-772
-770
-770
-770
-772
-775
-778
-778
-777
-776
-775
-772
-771
-772
-773
-773
-773
-771
-768
-763
-758
-754
-753
-754
-755
-758
-759
-758
-762
-763
-761
-759
-756
-754
-753
-751
-751
-750
-750
-751
-753
-755
-755
-755
-757
-760
-760
-760
-762
-763
-764
-764
-763
-762
-764
-767
-768
-770
-772
-772
-773
-772
-773
-774
-775
-776
-777
-775
-773
-771
-772
-773
-773
-775
-776
-777
-779
-778
-777
-776
-774
-772
-773
-774
-774
-776
-777
-776
-775
-773
-770
-768
-768
-769
-771
-775
-775
-763
-739
-703
-665
-627
-589
-553
-524
-508
-538
-599
-655
-699
-723
-730
-737
-747
-763
-785
-804
-819
-830
-837
-838
-837
-837
-835
-833
-832
-826
-815
-803
-792
-784
-778
-773
-771
-770
-768
-765
-765
-764
-762
-760
-760
-760
-761
-761
-760
-758
-757
-756
-755
-753
-751
-751
-751
-753
-756
-757
-756
-752
-749
-747
-747
-750
-751
-753
-754
-754
-753
-750
-748
-745
-744
-743
-744
-744
-744
-745
-743
-741
-738
-736
-735
-735
-735
-734
-733
-732
-730
-727
-724
-720
-718
-716
-714
-713
-712
-711
-709
-707
-704
-702
-699
-699
-699
-699
-697
-694
-689
-684
-681
-678
-680
-683
-684
-685
-685
-685
-684
-682
-680
-681
-682
-684
-686
-689
-692
-692
-694
-695
-696
-698
-703
-707
-711
-714
-717
-719
-721
-723
-726
-728
-731
-734
-736
-740
-745
-747
-748
-750
-750
-750
-753
-756
-758
-760
-761
-761
-760
-759
-758
-757
-757
-759
-763
-763
-763
-763
-762
-761
-760
-762
-761
-762
-763
-763
-762
-759
-756
-753
-753
-755
-758
-762
-762
-762
-760
-759
-758
-758
-758
-759
-759
-760
-761
-763
-764
-763
-760
-758
-758
-758
-759
-760
-760
-761
-761
-760
-759
-759
-760
-760
-760
-761
-763
-765
-764
-761
-761
-761
-760
-759
-759
-760
-759
-761
-762
-762
-762
-761
-761
-762
-762
-764
-765
-765
-764
-763
-762
-760
-761
-762
-763
-765
-767
-768
-767
-766
-764
-762
-763
-763
-764
-766
-767
-768
-767
-766
-764
-763
-762
-763
-764
-766
-766
-767
-767
-766
-766
-763
-762
-762
-763
-763
-764
-765
-766
-765
-764
-764
-763
-763
-763
-763
-766
-766
-766
-766
-762
-760
-761
-762
-765
-768
-767
-765
-762
-757
-754
-751
-749
-747
-749
-751
-752
-752
-754
-754
-753
-751
-747
-745
-746
-747
-747
-747
-746
-745
-745
-745
-745
-745
-749
-750
-751
-753
-757
-757
-756
-754
-752
-754
-756
-759
-762
-765
-766
-765
-762
-761
-763
-765
-767
-768
-767
-767
-768
-768
-767
-765
-764
-764
-766
-766
-767
-767
-766
-765
-763
-763
-764
-765
-767
-768
-770
-770
-768
-765
-760
-757
-758
-758
-762
-767
-763
-746
-720
-687
-652
-616
-582
-556
-534
-535
-587
-644
-685
-715
-725
-726
-729
-739
-753
-773
-787
-799
-809
-815
-817
-820
-823
-823
-821
-821
-817
-807
-797
-788
-781
-775
-770
-767
-764
-763
-761
-759
-758
-756
-754
-754
-754
-754
-754
-752
-752
-752
-750
-749
-749
-747
-746
-746
-747
-747
-747
-745
-743
-741
-739
-739
-740
-740
-742
-744
-745
-745
-746
-743
-740
-738
-737
-737
-736
-737
-737
-737
-736
-733
-730
-730
-729
-729
-730
-729
-728
-725
-723
-721
-717
-715
-714
-713
-713
-712
-711
-708
-706
-702
-698
-696
-694
-693
-694
-693
-691
-689
-686
-683
-680
-681
-684
-687
-689
-689
-687
-686
-685
-684
-683
-683
-685
-687
-690
-693
-694
-694
-694
-693
-694
-700
-705
-708
-712
-715
-717
-720
-722
-724
-725
-727
-731
-734
-735
-738
-740
-742
-743
-745
-746
-747
-749
-751
-753
-753
-752
-752
-751
-749
-748
-749
-749
-753
-754
-758
-760
-760
-759
-757
-756
-755
-755
-755
-757
-759
-758
-756
-754
-753
-752
-752
-754
-756
-757
-758
-757
-755
-753
-751
-752
-753
-753
-753
-753
-753
-753
-753
-752
-752
-752
-753
-755
-756
-756
-756
-755
-754
-753
-750
-749
-749
-751
-755
-757
-759
-759
-758
-757
-755
-755
-757
-759
-762
-764
-764
-761
-761
-759
-757
-756
-758
-760
-762
-762
-764
-763
-762
-760
-757
-756
-758
-760
-761
-764
-765
-764
-763
-761
-760
-760
-760
-761
-762
-763
-764
-765
-763
-762
-762
-762
-761
-762
-763
-764
-764
-763
-762
-760
-758
-759
-761
-763
-763
-765
-765
-764
-764
-765
-764
-764
-765
-766
-766
-767
-765
-763
-763
-762
-762
-763
-763
-764
-764
-765
-766
-766
-765
-764
-763
-765
-765
-764
-764
-763
-762
-762
-762
-763
-763
-761
-761
-762
-765
-768
-769
-768
-766
-764
-761
-761
-762
-762
-758
-753
-751
-751
-750
-750
-752
-752
-754
-757
-758
-758
-755
-751
-748
-744
-743
-742
-741
-743
-747
-749
-750
-750
-750
-750
-750
-751
-753
-756
-759
-760
-759
-756
-755
-756
-757
-757
-760
-762
-765
-767
-768
-768
-767
-766
-765
-765
-765
-767
-768
-768
-769
-767
-765
-764
-765
-766
-767
-768
-768
-768
-769
-768
-766
-765
-766
-766
-766
-767
-766
-765
-764
-763
-762
-763
-767
-762
-745
-720
-687
-650
-608
-565
-528
-499
-495
-547
-610
-665
-708
-726
-731
-733
-741
-758
-779
-796
-812
-823
-829
-831
-832
-828
-825
-822
-818
-812
-804
-796
-787
-780
-772
-765
-760
-757
-753
-753
-755
-758
-759
-759
-757
-754
-751
-750
-750
-750
-750
-752
-753
-752
-750
-748
-746
-745
-746
-746
-747
-747
-746
-746
-744
-742
-740
-739
-739
-740
-741
-741
-742
-740
-738
-735
-734
-732
-732
-733
-733
-733
-732
-730
-728
-726
-724
-722
-721
-721
-721
-720
-718
-717
-714
-711
-709
-706
-703
-702
-701
-700
-698
-696
-692
-688
-686
-686
-687
-686
-684
-683
-680
-679
-679
-678
-676
-676
-675
-674
-674
-676
-678
-676
-675
-673
-673
-674
-677
-680
-683
-687
-690
-691
-691
-692
-691
-689
-688
-694
-704
-714
-724
-730
-735
-737
-736
-735
-735
-735
-738
-741
-745
-749
-750
-750
-750
-751
-752
-753
-755
-755
-755
-755
-754
-753
-753
-753
-754
-756
-758
-757
-757
-755
-754
-754
-753
-753
-755
-756
-757
-757
-755
-755
-754
-751
-748
-747
-748
-752
-755
-757
-757
-752
-750
-749
-749
-751
-754
-757
-759
-760
-759
-756
-754
-755
-755
-756
-758
-759
-759
-758
-757
-755
-754
-755
-754
-754
-755
-758
-759
-759
-758
-758
-756
-754
-752
-751
-751
-753
-755
-758
-758
-755
-754
-754
-753
-755
-758
-761
-763
-763
-761
-759
-758
-758
-758
-759
-761
-763
-763
-762
-761
-759
-757
-756
-758
-759
-760
-760
-761
-761
-760
-758
-757
-756
-757
-759
-759
-759
-758
-758
-755
-755
-758
-760
-759
-759
-758
-757
-758
-758
-758
-758
-757
-757
-761
-763
-764
-766
-766
-764
-762
-760
-758
-757
-756
-755
-757
-759
-760
-761
-760
-759
-760
-759
-759
-760
-760
-761
-761
-758
-754
-752
-748
-746
-747
-747
-747
-748
-747
-746
-744
-744
-744
-743
-742
-742
-741
-742
-745
-745
-740
-739
-738
-741
-744
-745
-748
-750
-750
-749
-749
-749
-749
-750
-751
-752
-753
-754
-755
-755
-757
-758
-758
-758
-758
-759
-759
-760
-761
-761
-759
-758
-757
-755
-753
-755
-755
-756
-758
-759
-756
-755
-754
-755
-757
-759
-762
-766
-768
-768
-764
-761
-759
-755
-753
-753
-753
-755
-758
-759
-748
-727
-697
-663
-629
-596
-566
-542
-523
-549
-605
-652
-688
-715
-720
-722
-726
-733
-746
-763
-775
-789
-801
-807
-813
-816
-817
-817
-812
-803
-792
-784
-778
-776
-775
-774
-769
-766
-761
-758
-756
-752
-751
-750
-749
-750
-749
-749
-748
-746
-744
-742
-741
-739
-740
-742
-742
-743
-743
-742
-740
-738
-737
-736
-736
-736
-735
-733
-729
-727
-724
-723
-725
-728
-733
-736
-736
-737
-734
-729
-726
-726
-726
-725
-726
-727
-726
-724
-721
-719
-717
-715
-716
-715
-713
-711
-709
-708
-709
-707
-704
-699
-697
-696
-696
-696
-696
-695
-692
-688
-685
-682
-681
-682
-683
-683
-684
-684
-682
-679
-675
-674
-674
-675
-678
-680
-682
-684
-684
-685
-686
-687
-689
-692
-694
-694
-698
-703
-707
-710
-712
-713
-715
-718
-722
-725
-727
-729
-732
-733
-734
-733
-733
-735
-737
-742
-745
-744
-743
-744
-744
-745
-744
-744
-745
-748
-752
-756
-759
-757
-754
-752
-752
-754
-757
-758
-756
-756
-754
-753
-751
-749
-750
-751
-752
-752
-753
-752
-751
-751
-750
-749
-749
-750
-751
-752
-752
-751
-749
-747
-747
-748
-748
-746
-745
-745
-748
-753
-752
-751
-747
-745
-746
-752
-759
-763
-763
-761
-758
-756
-756
-757
-757
-757
-757
-758
-758
-757
-756
-755
-755
-755
-755
-756
-757
-757
-758
-757
-756
-755
-755
-756
-755
-755
-755
-753
-751
-752
-753
-754
-756
-754
-754
-753
-751
-752
-755
-760
-763
-765
-765
-765
-765
-765
-764
-764
-763
-761
-760
-759
-758
-759
-759
-760
-761
-762
-761
-760
-759
-758
-757
-757
-757
-757
-758
-761
-760
-754
-748
-747
-749
-751
-754
-755
-750
-748
-751
-757
-765
-764
-762
-758
-753
-753
-757
-761
-762
-761
-759
-756
-754
-752
-751
-752
-751
-752
-754
-754
-753
-750
-747
-744
-742
-741
-742
-741
-740
-741
-742
-743
-743
-743
-742
-745
-748
-749
-751
-751
-750
-748
-747
-748
-753
-759
-762
-761
-759
-756
-756
-758
-763
-765
-763
-760
-760
-758
-757
-759
-763
-765
-765
-762
-762
-764
-765
-767
-767
-765
-764
-764
-765
-764
-763
-763
-763
-763
-763
-762
-760
-759
-758
-759
-760
-762
-765
-758
-740
-713
-679
-641
-602
-565
-532
-501
-494
-542
-602
-654
-697
-716
-721
-727
-739
-759
-780
-796
-808
-818
-822
-825
-827
-828
-827
-824
-820
-812
-801
-790
-781
-773
-767
-763
-761
-759
-758
-757
-755
-752
-750
-749
-747
-746
-748
-746
-746
-745
-740
-733
-729
-729
-734
-743
-755
-759
-756
-754
-750
-744
-740
-738
-739
-740
-742
-742
-741
-740
-739
-737
-735
-734
-733
-733
-733
-734
-735
-733
-730
-728
-726
-725
-725
-727
-725
-721
-718
-717
-715
-712
-710
-708
-705
-703
-702
-699
-694
-690
-688
-691
-697
-699
-698
-696
-695
-694
-691
-688
-685
-683
-680
-678
-676
-676
-676
-676
-675
-674
-672
-669
-668
-669
-669
-671
-674
-677
-678
-679
-681
-683
-684
-687
-691
-695
-700
-703
-705
-707
-710
-713
-716
-719
-719
-722
-725
-726
-727
-728
-730
-731
-734
-738
-743
-748
-753
-754
-752
-747
-745
-745
-746
-748
-752
-755
-756
-756
-757
-756
-754
-752
-751
-752
-752
-752
-752
-753
-753
-752
-751
-751
-749
-747
-745
-747
-750
-751
-751
-751
-750
-749
-749
-748
-745
-744
-744
-743
-747
-752
-754
-756
-754
-753
-753
-752
-752
-752
-751
-750
-751
-751
-750
-750
-751
-752
-751
-750
-750
-751
-751
-751
-750
-750
-749
-750
-751
-752
-754
-756
-757
-754
-752
-753
-754
-755
-756
-757
-756
-755
-754
-753
-752
-752
-753
-754
-755
-756
-756
-754
-752
-752
-752
-753
-755
-758
-759
-758
-756
-752
-750
-748
-747
-746
-748
-752
-755
-756
-756
-756
-758
-761
-763
-763
-763
-763
-763
-762
-760
-758
-756
-755
-756
-757
-758
-758
-758
-758
-758
-756
-755
-755
-755
-756
-757
-757
-757
-757
-757
-756
-755
-754
-754
-753
-754
-753
-753
-753
-754
-753
-751
-747
-743
-742
-741
-741
-745
-748
-748
-745
-745
-745
-748
-749
-750
-750
-748
-745
-742
-739
-736
-733
-732
-734
-738
-742
-743
-743
-741
-740
-739
-740
-741
-745
-748
-750
-750
-750
-750
-749
-748
-748
-749
-752
-754
-756
-756
-754
-753
-752
-751
-750
-751
-752
-748
-743
-745
-751
-760
-766
-767
-765
-763
-762
-762
-762
-761
-760
-758
-757
-756
-755
-755
-755
-755
-754
-752
-752
-751
-751
-753
-745
-728
-702
-671
-637
-601
-566
-538
-514
-522
-578
-631
-673
-707
-723
-727
-727
-727
-735
-752
-766
-782
-797
-807
-814
-819
-819
-817
-813
-808
-803
-795
-786
-778
-773
-768
-762
-756
-752
-750
-748
-747
-747
-747
-747
-745
-744
-742
-741
-740
-739
-739
-739
-739
-740
-739
-737
-736
-733
-729
-727
-726
-729
-733
-740
-738
-730
-722
-718
-719
-728
-735
-738
-737
-734
-733
-731
-730
-730
-729
-728
-727
-726
-726
-725
-723
-721
-719
-716
-715
-714
-713
-713
-713
-711
-710
-707
-705
-702
-699
-698
-698
-697
-695
-693
-691
-688
-684
-682
-679
-679
-679
-680
-678
-675
-674
-672
-670
-671
-669
-667
-668
-669
-671
-673
-674
-675
-676
-675
-676
-677
-680
-683
-686
-688
-690
-691
-694
-695
-698
-701
-704
-706
-709
-710
-713
-718
-722
-723
-721
-720
-720
-724
-728
-733
-735
-736
-737
-736
-735
-737
-741
-744
-747
-748
-747
-745
-743
-743
-743
-744
-746
-746
-747
-746
-745
-744
-743
-742
-741
-742
-743
-743
-744
-744
-743
-742
-741
-740
-741
-741
-741
-742
-743
-741
-740
-738
-737
-736
-738
-741
-743
-745
-744
-742
-741
-741
-743
-744
-744
-745
-745
-745
-747
-747
-745
-743
-742
-743
-743
-744
-745
-746
-747
-747
-746
-745
-745
-744
-744
-745
-746
-746
-746
-746
-745
-744
-744
-745
-745
-747
-747
-745
-745
-745
-745
-745
-747
-748
-748
-748
-747
-749
-750
-751
-751
-749
-749
-750
-750
-751
-752
-753
-753
-752
-751
-750
-748
-748
-749
-749
-750
-751
-751
-750
-749
-748
-747
-747
-748
-749
-750
-751
-750
-749
-749
-747
-746
-745
-745
-748
-749
-749
-751
-751
-749
-747
-746
-747
-750
-753
-755
-756
-755
-754
-752
-751
-750
-750
-751
-752
-752
-752
-751
-750
-748
-746
-743
-740
-737
-736
-735
-736
-737
-736
-735
-736
-737
-737
-738
-736
-733
-729
-727
-725
-722
-723
-724
-728
-732
-734
-735
-736
-735
-736
-735
-736
-738
-741
-745
-748
-749
-750
-750
-750
-749
-750
-750
-750
-751
-752
-753
-753
-753
-752
-752
-751
-750
-750
-751
-753
-753
-753
-752
-751
-750
-750
-749
-748
-751
-753
-752
-752
-751
-749
-747
-747
-748
-746
-744
-743
-743
-745
-747
-750
-748
-734
-709
-677
-641
-604
-565
-528
-497
-479
-511
-572
-627
-674
-702
-710
-716
-724
-736
-756
-774
-788
-800
-807
-810
-810
-810
-809
-810
-808
-801
-789
-778
-769
-762
-754
-750
-747
-744
-742
-741
-741
-740
-739
-741
-741
-740
-738
-737
-736
-734
-732
-732
-733
-733
-733
-732
-732
-730
-729
-728
-728
-727
-727
-727
-728
-728
-726
-725
-724
-723
-720
-717
-716
-717
-718
-721
-723
-721
-717
-714
-712
-710
-709
-711
-714
-716
-716
-713
-711
-708
-705
-703
-702
-702
-701
-700
-698
-694
-691
-687
-685
-683
-682
-680
-679
-677
-675
-671
-668
-665
-664
-662
-659
-657
-657
-658
-660
-659
-658
-654
-651
-650
-652
-655
-657
-657
-660
-661
-661
-663
-664
-668
-671
-674
-678
-680
-683
-684
-685
-687
-691
-695
-698
-703
-706
-708
-711
-713
-713
-715
-718
-719
-720
-722
-726
-727
-728
-728
-730
-731
-730
-732
-732
-732
-732
-733
-733
-734
-734
-733
-734
-737
-738
-740
-740
-740
-740
-737
-734
-733
-735
-736
-737
-737
-736
-736
-736
-734
-732
-732
-731
-730
-731
-732
-734
-735
-736
-736
-735
-733
-733
-734
-734
-734
-735
-735
-733
-731
-729
-729
-729
-731
-734
-738
-741
-741
-740
-739
-735
-732
-732
-735
-736
-739
-740
-741
-741
-739
-737
-738
-738
-737
-738
-739
-740
-739
-738
-738
-738
-738
-737
-738
-739
-740
-740
-739
-739
-738
-736
-737
-739
-740
-740
-740
-740
-740
-739
-738
-737
-737
-737
-738
-737
-737
-737
-738
-738
-738
-739
-741
-741
-741
-741
-740
-740
-741
-741
-742
-742
-741
-742
-744
-745
-745
-746
-744
-742
-740
-739
-738
-739
-741
-743
-744
-743
-742
-741
-740
-739
-739
-740
-742
-743
-742
-742
-742
-739
-736
-735
-736
-736
-737
-738
-738
-734
-731
-729
-726
-724
-724
-728
-730
-730
-733
-734
-731
-728
-724
-722
-721
-721
-720
-721
-722
-725
-727
-727
-724
-724
-725
-726
-728
-731
-733
-735
-735
-734
-732
-731
-732
-735
-736
-737
-736
-736
-736
-737
-738
-740
-743
-746
-747
-747
-745
-745
-744
-742
-742
-742
-742
-741
-742
-744
-744
-743
-743
-741
-740
-740
-740
-741
-740
-741
-740
-738
-737
-735
-734
-734
-734
-738
-731
-715
-690
-658
-625
-589
-556
-530
-507
-509
-563
-616
-657
-692
-706
-707
-710
-717
-728
-747
-762
-774
-785
-792
-794
-797
-797
-795
-794
-794
-791
-784
-775
-767
-759
-751
-745
-742
-738
-737
-735
-735
-734
-732
-729
-726
-725
-724
-725
-728
-729
-730
-730
-730
-727
-725
-723
-721
-721
-723
-725
-725
-724
-723
-722
-722
-721
-719
-718
-718
-718
-719
-719
-718
-717
-716
-715
-714
-713
-714
-714
-712
-711
-709
-707
-705
-703
-704
-705
-704
-704
-703
-702
-700
-697
-694
-693
-692
-691
-691
-689
-686
-682
-676
-672
-669
-669
-672
-676
-677
-677
-675
-672
-668
-665
-663
-661
-662
-662
-662
-662
-662
-660
-657
-656
-655
-656
-658
-661
-664
-667
-668
-671
-672
