-791
-791
-790
-791
-795
-799
-802
-803
-803
-805
-806
-807
-808
-809
-809
-809
-811
-812
-813
-816
-816
-816
-815
-815
-814
-814
-815
-817
-818
-818
-818
-817
-817
-816
-814
-814
-814
-815
-814
-815
-818
-818
-817
-816
-816
-816
-814
-814
-817
-820
-820
-822
-819
-804
-779
-746
-709
-670
-632
-598
-571
-556
-593
-655
-709
-751
-775
-778
-780
-787
-797
-815
-831
-843
-855
-865
-870
-874
-877
-876
-874
-870
-863
-854
-845
-838
-831
-827
-823
-819
-816
-813
-812
-811
-810
-809
-808
-808
-809
-810
-808
-806
-804
-803
-803
-803
-803
-804
-804
-803
-803
-802
-799
-798
-796
-796
-797
-798
-799
-799
-797
-794
-792
-791
-791
-791
-792
-792
-794
-794
-794
-791
-787
-787
-787
-787
-787
-787
-787
-788
-787
-784
-781
-777
-777
-777
-776
-777
-776
-775
-773
-770
-766
-764
-763
-762
-761
-761
-761
-759
-756
-754
-750
-748
-746
-746
-745
-745
-745
-745
-744
-741
-738
-738
-737
-739
-739
-740
-741
-741
-740
-740
-742
-744
-745
-748
-752
-755
-757
-761
-765
-767
-767
-770
-773
-777
-781
-784
-787
-791
-791
-791
-794
-797
-798
-802
-805
-807
-810
-811
-812
-811
-810
-811
-812
-812
-813
-815
-817
-817
-818
-816
-815
-814
-815
-817
-818
-820
-821
-819
-818
-817
-816
-816
-817
-817
-818
-817
-818
-820
-817
-815
-815
-815
-816
-817
-817
-817
-817
-818
-817
-815
-814
-814
-814
-814
-815
-817
-818
-817
-817
-816
-815
-813
-814
-815
-815
-818
-818
-817
-818
-818
-817
-817
-818
-818
-820
-822
-822
-822
-822
-822
-821
-822
-822
-823
-823
-823
-823
-822
-820
-820
-820
-821
-822
-822
-823
-824
-824
-824
-824
-823
-822
-822
-821
-822
-824
-825
-825
-824
-821
-821
-821
-821
-821
-822
-826
-828
-827
-827
-826
-825
-823
-821
-823
-825
-827
-828
-829
-827
-826
-824
-824
-824
-823
-823
-823
-822
-820
-815
-812
-810
-810
-810
-810
-810
-811
-814
-816
-817
-817
-815
-810
-807
-806
-805
-804
-805
-807
-807
-807
-806
-805
-804
-806
-810
-812
-814
-818
-821
-821
-819
-818
-819
-820
-822
-826
-828
-829
-831
-830
-829
-827
-826
-828
-829
-830
-831
-832
-831
-829
-827
-827
-829
-830
-828
-829
-831
-832
-832
-831
-828
-828
-829
-830
-830
-830
-831
-831
-830
-827
-823
-822
-823
-823
-829
-830
-820
-802
-769
-733
-700
-664
-634
-614
-600
-626
-683
-729
-764
-787
-791
-787
-791
-799
-813
-830
-843
-854
-863
-867
-873
-880
-882
-882
-879
-878
-877
-869
-859
-849
-842
-836
-833
-829
-826
-824
-822
-822
-821
-820
-817
-817
-818
-818
-818
-818
-817
-816
-815
-814
-814
-814
-813
-813
-813
-814
-814
-812
-810
-809
-810
-809
-807
-808
-808
-808
-809
-808
-807
-806
-804
-803
-804
-804
-803
-803
-804
-803
-800
-798
-796
-795
-794
-795
-795
-794
-795
-794
-792
-789
-787
-785
-785
-784
-783
-783
-783
-781
-778
-776
-774
-772
-772
-771
-770
-769
-769
-768
-766
-763
-760
-760
-760
-760
-759
-759
-760
-757
-757
-754
-752
-754
-755
-756
-759
-760
-760
-761
-762
-763
-765
-768
-770
-773
-777
-781
-784
-787
-789
-790
-792
-794
-797
-799
-803
-807
-810
-810
-811
-811
-813
-815
-817
-820
-822
-823
-822
-823
-822
-820
-820
-821
-823
-825
-825
-826
-826
-825
-825
-822
-821
-822
-823
-824
-825
-825
-824
-822
-821
-820
-819
-820
-822
-824
-825
-825
-825
-823
-821
-820
-820
-820
-822
-822
-823
-825
-825
-824
-822
-822
-822
-822
-823
-824
-825
-826
-826
-825
-823
-822
-822
-823
-823
-824
-826
-827
-826
-825
-824
-822
-821
-823
-824
-824
-826
-826
-826
-826
-826
-826
-825
-826
-828
-827
-827
-828
-829
-828
-826
-827
-826
-827
-829
-829
-829
-831
-831
-830
-829
-829
-828
-829
-829
-829
-830
-831
-830
-828
-827
-828
-828
-828
-829
-830
-832
-832
-831
-830
-828
-827
-826
-827
-829
-829
-830
-829
-827
-824
-820
-816
-812
-808
-810
-814
-815
-818
-817
-815
-814
-815
-817
-819
-819
-817
-815
-812
-808
-805
-805
-805
-808
-810
-811
-814
-816
-817
-817
-817
-817
-818
-822
-823
-823
-825
-826
-827
-828
-828
-828
-828
-828
-827
-830
-832
-834
-835
-834
-834
-831
-831
-832
-834
-834
-836
-837
-837
-835
-833
-832
-833
-833
-834
-835
-836
-836
-836
-836
-834
-833
-832
-831
-830
-831
-831
-832
-832
-834
-833
-822
-800
-770
-735
-698
-659
-623
-596
-576
-594
-654
-707
-749
-781
-789
-791
-799
-810
-827
-845
-859
-870
-882
-887
-891
-894
-894
-893
-888
-882
-872
-862
-853
-846
-841
-837
-835
-831
-828
-825
-822
-821
-821
-821
-821
-823
-823
-821
-819
-816
-816
-815
-815
-815
-814
-815
-815
-815
-813
-810
-809
-807
-807
-812
-813
-811
-811
-810
-809
-807
-805
-803
-805
-804
-804
-804
-803
-803
-801
-798
-797
-796
-796
-797
-797
-797
-796
-795
-791
-789
-787
-786
-785
-784
-784
-784
-783
-779
-776
-773
-770
-767
-766
-769
-769
-768
-767
-765
-761
-759
-755
-753
-752
-751
-750
-750
-749
-748
-746
-743
-742
-741
-741
-742
-742
-744
-745
-746
-745
-744
-745
-748
-750
-753
-757
-761
-765
-768
-770
-770
-774
-779
-784
-789
-794
-797
-799
-800
-801
-801
-803
-805
-808
-810
-813
-816
-818
-818
-819
-819
-819
-820
-821
-822
-824
-826
-826
-825
-824
-823
-822
-822
-823
-824
-825
-826
-826
-824
-822
-821
-822
-824
-824
-824
-826
-827
-826
-825
-824
-823
-823
-823
-823
-824
-825
-825
-827
-826
-824
-823
-822
-823
-824
-825
-826
-826
-826
-825
-823
-823
-823
-823
-824
-825
-826
-827
-826
-825
-825
-824
-825
-826
-826
-827
-828
-828
-829
-827
-825
-827
-829
-829
-829
-830
-832
-833
-832
-831
-829
-828
-828
-828
-830
-831
-832
-832
-832
-831
-829
-829
-829
-829
-830
-830
-831
-833
-834
-832
-831
-829
-829
-829
-830
-830
-830
-831
-832
-831
-831
-829
-829
-830
-832
-833
-835
-835
-835
-833
-832
-831
-830
-832
-833
-835
-836
-836
-835
-834
-832
-831
-829
-828
-829
-826
-822
-819
-817
-815
-815
-815
-815
-816
-817
-819
-823
-825
-824
-820
-815
-813
-811
-810
-809
-809
-811
-813
-815
-816
-813
-813
-815
-816
-818
-823
-828
-831
-829
-827
-826
-826
-829
-829
-831
-834
-837
-837
-836
-834
-834
-834
-834
-836
-837
-838
-838
-839
-838
-837
-836
-836
-836
-837
-837
-837
-837
-837
-835
-834
-833
-832
-833
-836
-836
-836
-836
-835
-832
-830
-830
-830
-831
-835
-834
-820
-796
-761
-723
-683
-641
-606
-579
-567
-609
-673
-729
-772
-794
-796
-797
-804
-816
-838
-857
-872
-885
-893
-894
-894
-893
-892
-891
-889
-883
-873
-864
-855
-846
-840
-836
-832
-829
-828
-827
-827
-827
-826
-825
-822
-821
-821
-821
-821
-822
-822
-821
-821
-820
-817
-815
-815
-816
-816
-817
-817
-817
-815
-815
-813
-811
-810
-810
-811
-812
-811
-811
-811
-809
-808
-806
-804
-805
-807
-806
-805
-805
-802
-799
-797
-797
-795
-795
-795
-796
-796
-795
-792
-789
-786
-785
-784
-784
-783
-782
-781
-780
-777
-774
-771
-769
-766
-765
-763
-763
-763
-761
-759
-756
-754
-753
-752
-751
-750
-750
-751
-750
-748
-746
-745
-744
-745
-745
-746
-749
-752
-755
-757
-759
-761
-764
-768
-773
-777
-780
-784
-787
-791
-793
-794
-796
-798
-802
-806
-810
-813
-816
-817
-817
-818
-818
-821
-823
-825
-828
-828
-830
-829
-828
-829
-828
-829
-831
-832
-832
-832
-832
-831
-830
-829
-828
-828
-829
-831
-832
-832
-831
-831
-828
-827
-828
-829
-829
-830
-831
-832
-832
-830
-830
-828
-828
-829
-829
-829
-830
-832
-832
-831
-830
-829
-828
-829
-831
-830
-829
-831
-833
-831
-829
-827
-827
-828
-828
-829
-830
-831
-832
-832
-830
-829
-828
-829
-831
-832
-834
-835
-834
-831
-830
-829
-829
-831
-833
-833
-835
-836
-836
-835
-834
-833
-834
-834
-834
-835
-837
-838
-837
-835
-833
-832
-832
-833
-834
-837
-838
-838
-837
-835
-835
-833
-832
-833
-834
-835
-837
-837
-835
-834
-834
-833
-833
-834
-834
-835
-835
-836
-835
-834
-834
-836
-836
-836
-837
-838
-839
-841
-839
-837
-835
-834
-835
-836
-836
-838
-840
-839
-839
-837
-836
-835
-833
-833
-832
-830
-828
-826
-824
-823
-821
-821
-821
-821
-823
-826
-829
-830
-829
-826
-820
-816
-814
-813
-813
-814
-817
-820
-820
-820
-820
-819
-821
-823
-827
-830
-833
-835
-833
-830
-829
-830
-830
-832
-837
-840
-841
-841
-841
-840
-840
-838
-838
-839
-838
-839
-841
-841
-841
-840
-839
-840
-839
-839
-840
-840
-842
-842
-841
-840
-839
-839
-839
-839
-839
-841
-841
-841
-839
-836
-836
-835
-836
-840
-838
-824
-800
-766
-731
-696
-661
-633
-612
-606
-652
-710
-752
-784
-802
-803
-802
-807
-816
-832
-846
-859
-871
-880
-885
-890
-892
-894
-892
-890
-889
-883
-873
-865
-856
-849
-843
-836
-835
-835
-835
-834
-834
-833
-831
-830
-829
-827
-827
-828
-828
-828
-828
-826
-824
-824
-822
-821
-821
-823
-824
-824
-823
-822
-820
-818
-817
-816
-816
-816
-817
-818
-816
-816
-813
-812
-811
-810
-811
-811
-811
-811
-810
-808
-807
-804
-804
-804
-804
-804
-804
-803
-802
-801
-799
-797
-795
-794
-794
-793
-792
-792
-790
-787
-785
-783
-781
-779
-777
-774
-773
-774
-773
-770
-766
-765
-765
-765
-764
-764
-763
-763
-763
-762
-761
-758
-758
-759
-760
-762
-765
-767
-767
-768
-770
-772
-774
-777
-783
-787
-791
-794
-798
-798
-800
-801
-804
-807
-810
-813
-815
-816
-818
-820
-820
-819
-821
-824
-825
-827
-830
-833
-833
-832
-830
-829
-831
-832
-833
-834
-835
-837
-836
-835
-833
-830
-831
-832
-833
-835
-835
-835
-835
-834
-832
-832
-832
-833
-833
-835
-836
-837
-837
-836
-835
-834
-833
-834
-834
-835
-834
-834
-832
-824
-827
-831
-832
-833
-833
-834
-834
-835
-836
-834
-832
-831
-831
-832
-834
-835
-835
-836
-836
-835
-833
-831
-832
-832
-833
-835
-836
-837
-838
-837
-835
-834
-834
-835
-838
-839
-839
-840
-840
-838
-837
-837
-837
-838
-839
-838
-839
-840
-840
-839
-838
-837
-838
-838
-838
-838
-840
-840
-840
-838
-836
-836
-836
-837
-838
-839
-839
-840
-839
-838
-836
-836
-837
-838
-838
-838
-839
-840
-838
-837
-837
-836
-837
-839
-840
-840
-840
-841
-841
-840
-838
-837
-838
-839
-838
-840
-841
-841
-841
-839
-838
-837
-838
-838
-839
-841
-842
-841
-840
-837
-836
-835
-835
-834
-832
-829
-827
-825
-825
-824
-823
-823
-823
-824
-825
-828
-830
-830
-828
-822
-819
-817
-817
-817
-816
-819
-822
-824
-824
-823
-823
-824
-825
-827
-829
-832
-835
-835
-833
-832
-831
-831
-833
-836
-838
-840
-841
-841
-840
-839
-838
-838
-839
-840
-841
-842
-843
-843
-842
-841
-838
-836
-837
-839
-839
-839
-840
-841
-841
-840
-838
-838
-839
-840
-841
-842
-841
-839
-836
-835
-835
-835
-839
-837
-821
-797
-763
-726
-686
-647
-613
-587
-578
-620
-683
-732
-774
-795
-797
-798
-805
-817
-838
-856
-870
-884
-891
-894
-895
-895
-893
-891
-889
-886
-877
-868
-859
-851
-843
-837
-834
-831
-829
-829
-828
-829
-829
-828
-825
-823
-821
-821
-821
-821
-823
-824
-823
-822
-819
-817
-816
-816
-816
-816
-817
-817
-817
-814
-813
-811
-811
-810
-811
-812
-813
-811
-810
-810
-808
-805
-804
-804
-804
-804
-804
-802
-801
-799
-798
-796
-796
-795
-795
-795
-795
-794
-793
-791
-789
-786
-784
-782
-782
-780
-779
-778
-776
-773
-770
-767
-765
-763
-761
-760
-760
-759
-758
-755
-751
-748
-747
-747
-746
-746
-747
-747
-745
-744
-741
-740
-739
-741
-742
-744
-746
-749
-751
-753
-754
-756
-759
-763
-767
-771
-776
-780
-784
-787
-788
-790
-793
-796
-800
-804
-807
-810
-812
-813
-813
-815
-816
-816
-818
-818
-820
-825
-825
-825
-825
-825
-825
-825
-826
-827
-828
-826
-824
-822
-823
-823
-823
-824
-825
-827
-829
-828
-827
-826
-825
-823
-823
-823
-824
-825
-826
-827
-827
-825
-824
-823
-823
-823
-824
-825
-826
-826
-826
-825
-823
-823
-824
-825
-825
-826
-828
-827
-827
-826
-824
-822
-822
-823
-825
-827
-828
-828
-828
-827
-826
-826
-827
-827
-828
-829
-830
-830
-829
-828
-827
-828
-828
-829
-830
-831
-832
-833
-832
-830
-829
-828
-829
-829
-830
-832
-834
-832
-830
-830
-830
-830
-828
-829
-830
-831
-833
-835
-833
-831
-830
-829
-829
-829
-830
-830
-832
-831
-830
-829
-828
-827
-829
-831
-832
-834
-835
-834
-834
-833
-831
-830
-830
-831
-832
-833
-834
-834
-833
-832
-831
-830
-830
-832
-832
-833
-834
-833
-832
-831
-830
-830
-830
-831
-831
-832
-833
-834
-831
-829
-828
-827
-828
-830
-831
-832
-832
-830
-828
-826
-821
-817
-815
-816
-818
-821
-822
-820
-818
-818
-819
-822
-823
-822
-819
-817
-815
-815
-811
-808
-809
-812
-814
-815
-817
-818
-819
-819
-818
-819
-820
-823
-826
-826
-826
-827
-828
-828
-829
-829
-829
-830
-830
-830
-831
-833
-833
-832
-832
-832
-833
-833
-834
-835
-836
-837
-838
-837
-835
-833
-833
-835
-837
-836
-834
-836
-837
-834
-835
-833
-831
-831
-831
-830
-832
-834
-833
-834
-833
-819
-795
-763
-725
-687
-648
-611
-582
-559
-580
-641
-699
-747
-779
-786
-789
-796
-809
-830
-848
-863
-875
-885
-889
-892
-894
-894
-892
-888
-883
-872
-862
-852
-845
-840
-836
-832
-831
-828
-825
-822
-820
-820
-820
-820
-820
-820
-819
-818
-816
-814
-813
-812
-811
-811
-812
-813
-812
-810
-808
-806
-805
-806
-808
-808
-809
-810
-808
-805
-801
-801
-803
-804
-805
-803
-802
-802
-801
-800
-798
-795
-795
-794
-795
-795
-795
-794
-793
-791
-788
-786
-784
-782
-782
-782
-782
-781
-779
-775
-772
-769
-767
-765
-764
-763
-762
-761
-758
-756
-753
-750
-748
-746
-744
-743
-742
-742
-743
-741
-738
-736
-734
-734
-734
-735
-735
-734
-733
-733
-733
-734
-737
-740
-743
-747
-750
-753
-757
-760
-761
-763
-767
-772
-776
-780
-785
-788
-791
-792
-793
-795
-797
-799
-803
-806
-808
-811
-812
-813
-813
-813
-813
-814
-816
-817
-819
-820
-821
-820
-820
-820
-819
-821
-822
-823
-824
-824
-823
-821
-820
-819
-820
-821
-821
-821
-822
-822
-821
-819
-818
-817
-817
-818
-819
-819
-821
-821
-820
-819
-818
-817
-817
-817
-817
-817
-817
-818
-819
-817
-817
-818
-819
-819
-820
-822
-825
-825
-823
-821
-819
-821
-821
-821
-822
-822
-823
-824
-823
-822
-821
-819
-820
-821
-821
-823
-824
-824
-823
-822
-822
-822
-823
-824
-825
-826
-827
-827
-824
-821
-820
-821
-823
-825
-826
-827
-828
-828
-828
-825
-824
-822
-823
-825
-826
-827
-828
-827
-826
-824
-823
-823
-823
-826
-827
-827
-827
-827
-825
-823
-823
-824
-824
-824
-825
-826
-827
-826
-824
-823
-822
-823
-823
-824
-826
-827
-829
-828
-827
-826
-824
-824
-825
-827
-828
-829
-830
-829
-827
-826
-825
-824
-825
-826
-828
-829
-829
-829
-827
-825
-824
-823
-822
-822
-822
-820
-816
-812
-812
-810
-808
-809
-811
-811
-812
-817
-818
-816
-815
-813
-809
-808
-806
-804
-806
-807
-810
-810
-810
-810
-809
-810
-811
-813
-816
-819
-822
-823
-822
-819
-818
-818
-820
-824
-827
-829
-829
-829
-828
-826
-826
-828
-829
-828
-829
-830
-831
-829
-828
-828
-828
-828
-828
-828
-830
-831
-830
-829
-827
-826
-826
-826
-828
-830
-831
-832
-830
-828
-825
-825
-826
-826
-828
-830
-818
-796
-764
-727
-688
-649
-614
-588
-568
-594
-657
-713
-754
-781
-785
-784
-787
-798
-815
-835
-850
-864
-875
-880
-883
-883
-883
-881
-880
-878
-872
-863
-854
-846
-838
-831
-826
-824
-823
-820
-821
-822
-820
-818
-817
-815
-814
-814
-815
-816
-817
-817
-816
-814
-812
-810
-810
-810
-809
-807
-808
-811
-809
-807
-804
-803
-804
-803
-803
-802
-802
-803
-803
-801
-799
-797
-797
-796
-796
-797
-797
-797
-797
-796
-793
-793
-793
-791
-792
-793
-792
-789
-787
-785
-783
-781
-779
-776
-777
-777
-776
-773
-772
-769
-765
-763
-761
-760
-759
-758
-759
-757
-755
-752
-749
-747
-745
-743
-743
-743
-743
-743
-742
-740
-738
-737
-738
-741
-742
-745
-746
-749
-750
-749
-748
-751
-755
-758
-763
-766
-769
-772
-776
-779
-782
-784
-787
-791
-794
-796
-799
-802
-804
-806
-806
-807
-808
-809
-812
-814
-817
-818
-817
-816
-816
-816
-817
-819
-821
-822
-823
-823
-822
-821
-818
-818
-820
-820
-822
-824
-825
-824
-821
-819
-820
-821
-821
-819
-819
-820
-821
-822
-821
-818
-816
-817
-817
-818
-819
-820
-821
-820
-817
-816
-815
-815
-816
-818
-819
-819
-820
-821
-819
-818
-817
-817
-817
-818
-819
-821
-822
-820
-819
-817
-817
-819
-819
-820
-820
-821
-822
-821
-820
-819
-819
-819
-819
-820
-821
-822
-822
-822
-821
-819
-820
-819
-819
-820
-822
-823
-821
-821
-821
-821
-819
-818
-819
-820
-822
-822
-822
-821
-820
-820
-819
-819
-821
-821
-822
-824
-825
-825
-822
-821
-821
-821
-821
-821
-823
-823
-822
-822
-821
-820
-820
-819
-819
-821
-823
-823
-824
-824
-823
-820
-819
-819
-820
-822
-823
-824
-824
-824
-822
-821
-820
-819
-819
-821
-821
-822
-821
-821
-820
-818
-817
-818
-819
-816
-814
-813
-811
-809
-809
-809
-810
-810
-809
-811
-814
-817
-816
-813
-809
-803
-801
-800
-800
-801
-802
-805
-806
-807
-807
-806
-807
-807
-807
-810
-812
-815
-818
-817
-813
-812
-813
-814
-816
-818
-819
-822
-822
-821
-821
-821
-820
-821
-822
-823
-823
-822
-822
-822
-822
-821
-820
-822
-824
-825
-825
-826
-825
-823
-822
-821
-820
-821
-821
-822
-823
-823
-820
-819
-817
-815
-815
-820
-820
-808
-788
-759
-724
-687
-650
-620
-599
-586
-617
-671
-716
-752
-777
-779
-776
-782
-790
-805
-821
-833
-846
-856
-861
-868
-871
-872
-872
-868
-867
-865
-858
-849
-841
-835
-827
-821
-817
-815
-814
-813
-813
-812
-811
-810
-808
-807
-805
-804
-806
-806
-807
-807
-806
-802
-799
-798
-798
-798
-798
-800
-800
-800
-801
-798
-796
-794
-793
-793
-795
-797
-798
-798
-796
-793
-791
-790
-788
-789
-789
-789
-791
-790
-789
-786
-784
-783
-782
-781
-782
-781
-780
-779
-777
-774
-772
-771
-770
-768
-767
-765
-764
-763
-762
-758
-755
-752
-752
-750
-749
-749
-748
-746
-743
-740
-739
-737
-738
-738
-736
-736
-735
-736
-737
-735
-733
-733
-732
-734
-735
-736
-739
-742
-742
-744
-747
-749
-751
-753
-757
-761
-764
-766
-768
-769
-771
-773
-776
-779
-783
-787
-791
-793
-795
-795
-795
-797
-798
-801
-802
-804
-806
-806
-806
-804
-804
-804
-805
-807
-808
-809
-810
-810
-808
-807
-806
-806
-806
-806
-806
-807
-807
-807
-807
-806
-804
-803
-803
-804
-805
-806
-807
-806
-804
-802
-801
-800
-800
-801
-802
-804
-806
-806
-805
-805
-804
-802
-802
-804
-805
-806
-807
-806
-804
-804
-805
-803
-803
-804
-805
-805
-805
-805
-806
-805
-803
-803
-804
-803
-803
-804
-805
-805
-805
-804
-805
-804
-804
-804
-806
-807
-807
-806
-805
-804
-805
-806
-806
-806
-807
-808
-808
-808
-807
-805
-805
-806
-806
-807
-808
-809
-810
-810
-808
-806
-806
-806
-806
-807
-809
-810
-810
-809
-808
-807
-807
-807
-805
-804
-807
-808
-807
-808
-807
-805
-805
-806
-806
-807
-808
-808
-808
-808
-807
-806
-806
-806
-806
-807
-807
-807
-805
-801
-796
-793
-791
-791
-791
-795
-798
-796
-796
-797
-797
-797
-797
-795
-791
-789
-789
-790
-788
-786
-786
-787
-787
-790
-791
-792
-794
-794
-795
-796
-798
-799
-800
-799
-799
-800
-802
-804
-805
-805
-805
-805
-805
-806
-807
-808
-810
-811
-810
-809
-808
-807
-808
-808
-809
-809
-810
-810
-810
-810
-809
-808
-808
-808
-808
-808
-809
-809
-811
-808
-806
-803
-801
-801
-802
-803
-806
-808
-799
-778
-747
-712
-676
-639
-605
-579
-557
-567
-623
-675
-714
-748
-761
-763
-768
-779
-795
-815
-828
-839
-850
-854
-859
-862
-864
-863
-862
-859
-852
-840
-830
-823
-817
-812
-808
-805
-802
-799
-798
-796
-793
-791
-790
-790
-790
-791
-791
-792
-791
-789
-788
-787
-786
-785
-785
-786
-786
-786
-785
-784
-782
-782
-781
-781
-780
-780
-781
-782
-779
-778
-777
-774
-773
-774
-775
-775
-774
-772
-772
-773
-770
-769
-768
-765
-764
-765
-764
-763
-762
-758
-756
-755
-755
-755
-754
-754
-753
-751
-748
-745
-742
-740
-738
-736
-735
-735
-733
-732
-729
-725
-721
-720
-719
-719
-717
-718
-718
-716
-714
-710
-708
-707
-708
-710
-711
-713
-714
-715
-715
-716
-718
-720
-723
-726
-730
-734
-737
-741
-743
-746
-748
-750
-754
-758
-762
-766
-769
-772
-774
-775
-776
-778
-780
-783
-784
-785
-791
-793
-790
-789
-790
-793
-794
-795
-796
-797
-797
-797
-796
-794
-794
-794
-794
-795
-796
-797
-799
-798
-796
-794
-793
-792
-792
-792
-795
-796
-797
-797
-796
-792
-793
-795
-794
-793
-795
-796
-796
-797
-794
-793
-793
-792
-793
-794
-795
-796
-796
-795
-794
-793
-793
-793
-793
-793
-795
-796
-797
-796
-796
-794
-794
-793
-794
-794
-796
-797
-798
-797
-797
-797
-797
-796
-793
-794
-797
-799
-799
-799
-796
-797
-798
-798
-798
-799
-801
-802
-802
-801
-800
-799
-797
-798
-799
-800
-801
-803
-803
-802
-800
-799
-798
-798
-799
-800
-801
-802
-803
-802
-801
-800
-798
-798
-799
-800
-802
-803
-802
-800
-797
-796
-797
-797
-799
-801
-801
-802
-802
-802
-801
-801
-800
-801
-801
-801
-802
-801
-801
-798
-795
-790
-786
-783
-784
-786
-788
-788
-787
-786
-787
-788
-790
-790
-790
-788
-786
-783
-783
-779
-777
-778
-779
-781
-783
-783
-784
-786
-788
-788
-789
-790
-792
-794
-795
-794
-796
-798
-796
-797
-799
-800
-800
-801
-802
-804
-805
-805
-805
-805
-804
-803
-803
-803
-802
-803
-805
-806
-806
-805
-804
-803
-803
-803
-802
-803
-803
-805
-806
-804
-803
-800
-799
-800
-800
-800
-800
-801
-802
-801
-792
-771
-743
-709
-672
-634
-598
-568
-543
-544
-597
-656
-704
-742
-757
-761
-766
-777
-794
-814
-829
-843
-854
-860
-861
-862
-863
-862
-859
-854
-845
-833
-823
-817
-813
-808
-803
-800
-796
-793
-791
-791
-791
-789
-789
-789
-789
-788
-787
-786
-786
-784
-782
-782
-783
-784
-785
-785
-783
-782
-780
-778
-776
-777
-779
-778
-779
-778
-776
-775
-775
-773
-772
-773
-774
-774
-773
-772
-771
-769
-767
-766
-765
-765
-765
-764
-764
-764
-763
-760
-758
-756
-754
-753
-753
-752
-751
-749
-747
-744
-742
-739
-737
-736
-735
-734
-732
-731
-729
-725
-722
-720
-717
-715
-714
-716
-715
-713
-709
-706
-707
-707
-705
-704
-705
-705
-706
-706
-706
-705
-706
-709
-711
-714
-719
-723
-728
-731
-733
-735
-738
-740
-744
-748
-752
-757
-760
-762
-764
-765
-767
-769
-772
-775
-778
-781
-784
-785
-787
-787
-788
-788
-789
-791
-792
-795
-796
-796
-794
-793
-795
-795
-794
-794
-795
-798
-798
-797
-796
-795
-794
-793
-793
-794
-794
-796
-796
-794
-793
-792
-792
-791
-792
-793
-794
-794
-794
-793
-792
-791
-790
-791
-791
-793
-794
-794
-794
-794
-793
-794
-793
-792
-792
-793
-792
-793
-796
-796
-795
-793
-794
-794
-794
-795
-797
-799
-799
-798
-796
-795
-795
-795
-796
-797
-798
-799
-799
-798
-797
-797
-797
-797
-798
-798
-800
-801
-801
-801
-800
-798
-798
-798
-798
-799
-800
-801
-801
-801
-799
-799
-798
-799
-801
-801
-802
-802
-802
-801
-801
-799
-799
-799
-799
-799
-801
-803
-803
-801
-801
-800
-800
-801
-800
-802
-804
-805
-805
-804
-801
-800
-801
-801
-802
-804
-804
-803
-802
-802
-800
-800
-801
-803
-803
-802
-804
-805
-803
-802
-800
-799
-800
-801
-799
-797
-795
-792
-790
-790
-789
-789
-789
-787
-791
-794
-797
-797
-795
-791
-786
-781
-780
-780
-782
-783
-787
-790
-790
-788
-787
-787
-788
-789
-792
-796
-799
-801
-799
-797
-795
-795
-797
-798
-801
-805
-807
-807
-806
-804
-805
-805
-805
-806
-807
-806
-806
-807
-808
-806
-806
-804
-803
-804
-807
-807
-808
-807
-806
-805
-805
-805
-805
-806
-806
-805
-805
-805
-805
-802
-799
-797
-799
-802
-795
-779
-752
-721
-688
-650
-614
-588
-566
-571
-625
-678
-719
-753
-765
-764
-767
-774
-785
-803
-819
-834
-846
-852
-857
-862
-862
-861
-859
-858
-854
-846
-837
-828
-820
-814
-808
-803
-801
-799
-798
-798
-799
-799
-796
-794
-792
-790
-790
-790
-790
-791
-792
-791
-790
-789
-789
-787
-786
-788
-790
-788
-788
-787
-787
-785
-783
-783
-783
-783
-782
-783
-783
-782
-781
-779
-778
-777
-777
-777
-778
-779
-779
-778
-775
-772
-770
-768
-767
-767
-768
-768
-767
-764
-761
-759
-757
-756
-756
-755
-754
-753
-754
-751
-747
-742
-738
-736
-736
-736
-737
-736
-735
-732
-729
-727
-726
-724
-722
-721
-723
-722
-721
-721
-719
-717
-716
-717
-718
-720
-723
-723
-725
-729
-730
-731
-732
-735
-738
-742
-746
-752
-755
-758
-759
-760
-762
-765
-768
-773
-776
-778
-779
-782
-784
-785
-785
-786
-789
-791
-794
-799
-800
-801
-798
-793
-792
-793
-795
-795
-798
-801
-800
-801
-801
-799
-798
-797
-798
-798
-799
-801
-800
-800
-799
-798
-797
-797
-797
-797
-798
-798
-798
-798
-796
-796
-794
-794
-794
-795
-796
-795
-795
-795
-794
-794
-791
-792
-792
-793
-795
-797
-796
-796
-796
-795
-794
-795
-795
-795
-796
-799
-798
-797
-795
-794
-794
-794
-796
-797
-797
-798
-798
-798
-796
-795
-794
-796
-796
-797
-797
-800
-800
-798
-799
-798
-797
-796
-798
-798
-797
-799
-799
-800
-799
-798
-798
-797
-797
-798
-800
-801
-800
-799
-797
-795
-796
-797
-797
-799
-800
-800
-799
-800
-799
-797
-799
-797
-797
-798
-798
-800
-802
-801
-799
-799
-800
-799
-799
-800
-802
-802
-801
-798
-797
-797
-798
-797
-798
-800
-801
-802
-800
-801
-799
-797
-797
-799
-800
-800
-801
-801
-800
-797
-796
-795
-793
-790
-789
-788
-787
-786
-788
-788
-786
-784
-784
-788
-790
-791
-791
-788
-784
-781
-780
-779
-778
-778
-782
-786
-786
-787
-786
-785
-785
-785
-787
-790
-792
-794
-794
-793
-793
-793
-792
-792
-793
-796
-799
-801
-800
-798
-794
-790
-789
-792
-795
-798
-801
-804
-805
-805
-804
-801
-799
-799
-800
-799
-801
-802
-803
-803
-802
-802
-800
-799
-799
-799
-799
-799
-798
-798
-796
-793
-792
-794
-794
-783
-762
-734
-702
-667
-631
-599
-576
-560
-588
-641
-686
-724
-753
-758
-759
-762
-769
-783
-798
-812
-827
-839
-845
-849
-852
-851
-849
-846
-845
-843
-836
-828
-819
-812
-806
-800
-796
-793
-790
-789
-790
-791
-791
-788
-786
-785
-783
-782
-781
-781
-781
-782
-782
-782
-781
-778
-776
-774
-774
-776
-777
-777
-777
-776
-775
-771
-769
-770
-771
-771
-770
-771
-771
-770
-768
-766
-766
-766
-765
-766
-766
-767
-766
-764
-762
-760
-759
-756
-755
-755
-756
-756
-756
-754
-750
-748
-746
-744
-742
-742
-741
-740
-738
-735
-732
-728
-726
-725
-724
-723
-722
-721
-721
-719
-716
-713
-709
-707
-706
-706
-707
-708
-708
-706
-705
-704
-705
-706
-707
-712
-718
-718
-718
-716
-720
-722
-718
-714
-716
-718
-720
-725
-731
-741
-751
-757
-763
-768
-773
-777
-779
-780
-781
-781
-781
-781
-781
-785
-785
-786
-788
-788
-788
-785
-785
-787
-790
-812
-813
-791
-790
-783
-777
-776
-789
-789
-788
-789
-789
-789
-790
-791
-790
-789
-787
-785
-784
-785
-786
-784
-786
-787
-787
-785
-784
-783
-782
-784
-784
-785
-787
-789
-789
-787
-784
-782
-782
-782
-783
-785
-787
-788
-787
-785
-785
-785
-786
-785
-784
-784
-786
-788
-789
-788
-785
-783
-781
-781
-784
-786
-789
-789
-787
-786
-786
-787
-788
-789
-789
-789
-790
-790
-790
-788
-787
-786
-786
-788
-789
-790
-791
-791
-791
-790
-789
-789
-791
-791
-790
-788
-786
-785
-785
-788
-792
-792
-790
-786
-784
-782
-782
-780
-782
-783
-784
-786
-789
-794
-798
-799
-798
-797
-795
-793
-792
-790
-789
-790
-790
-790
-792
-792
-791
-791
-790
-789
-789
-789
-788
-787
-784
-782
-782
-784
-785
-786
-787
-789
-793
-793
-790
-787
-786
-785
-787
-791
-797
-800
-801
-800
-797
-796
-795
-794
-792
-791
-790
-790
-790
-791
-791
-789
-785
-781
-775
-773
-774
-775
-776
-777
-777
-776
-777
-778
-778
-778
-777
-774
-771
-771
-771
-771
-770
-769
-771
-772
-774
-774
-773
-774
-775
-777
-778
-779
-781
-782
-782
-782
-783
-785
-787
-788
-790
-789
-788
-788
-788
-790
-789
-788
-788
-787
-785
-785
-787
-792
-793
-793
-791
-789
-789
-789
-788
-788
-789
-790
-790
-791
-792
-793
-793
-793
-791
-789
-787
-786
-785
-784
-785
-787
-787
-789
-781
-760
-731
-696
-658
-621
-581
-547
-519
-515
-563
-623
-675
-718
-738
-743
-750
-762
-776
-796
-814
-829
-841
-848
-849
-847
-844
-842
-840
-838
-832
-822
-812
-804
-798
-793
-789
-787
-783
-780
-777
-775
-774
-773
-774
-775
-775
-775
-775
-772
-770
-769
-768
-767
-767
-766
-765
-765
-764
-763
-763
-762
-762
-762
-761
-760
-761
-761
-760
-759
-759
-757
-756
-756
-756
-756
-756
-757
-755
-754
-752
-749
-748
-747
-746
-746
-746
-747
-746
-744
-740
-737
-735
-733
-731
-729
-730
-731
-729
-728
-724
-722
-718
-714
-712
-711
-712
-713
-710
-708
-705
-703
-700
-697
-696
-694
-693
-692
-690
-687
-684
-682
-681
-681
-680
-680
-681
-680
-680
-680
-680
-681
-682
-686
-688
-693
-698
-701
-705
-708
-710
-713
-717
-721
-725
-728
-733
-738
-740
-740
-742
-744
-748
-750
-754
-757
-759
-759
-761
-764
-764
-765
-765
-766
-767
-770
-772
-773
-774
-773
-771
-770
-771
-772
-773
-773
-772
-771
-769
-769
-769
-771
-774
-776
-776
-775
-774
-773
-771
-770
-770
-770
-771
-772
-774
-775
-775
-774
-773
-772
-771
-771
-771
-771
-771
-772
-772
-773
-774
-772
-770
-769
-769
-770
-771
-772
-772
-772
-772
-770
-769
-768
-769
-770
-772
-773
-774
-775
-774
-772
-770
-771
-771
-773
-774
-778
-779
-778
-776
-774
-773
-773
-774
-774
-777
-780
-781
-780
-778
-776
-774
-773
-775
-776
-776
-777
-777
-778
-778
-776
-774
-773
-771
-772
-774
-776
-779
-781
-780
-779
-777
-776
-776
-775
-777
-778
-780
-779
-778
-777
-776
-775
-776
-777
-777
-776
-777
-777
-777
-777
-777
-777
-778
-779
-778
-778
-779
-778
-778
-778
-777
-778
-778
-779
-781
-781
-781
-780
-779
-777
-777
-777
-778
-777
-779
-780
-780
-780
-779
-777
-777
-776
-776
-776
-778
-779
-779
-777
-776
-775
-775
-775
-775
-776
-777
-778
-779
-780
-780
-777
-776
-775
-772
-770
-767
-765
-765
-764
-765
-762
-761
-762
-763
-768
-772
-773
-773
-768
-763
-760
-758
-756
-757
-759
-762
-765
-766
-765
-764
-763
-763
-764
-766
-769
-773
-774
-773
-771
-771
-769
-770
-771
-774
-776
-778
-780
-780
-780
-779
-777
-777
-775
-776
-777
-779
-783
-784
-784
-783
-781
-780
-781
-781
-783
-783
-783
-782
-781
-781
-781
-781
-781
-781
-782
-782
-781
-779
-777
-776
-775
-773
-776
-773
-757
-733
-700
-662
-622
-582
-547
-518
-508
-554
-615
-667
-710
-733
-738
-739
-746
-758
-779
-797
-812
-826
-835
-838
-838
-836
-835
-835
-834
-830
-822
-814
-805
-797
-788
-782
-778
-775
-773
-771
-772
-773
-773
-772
-770
-768
-766
-765
-765
-765
-764
-765
-765
-765
-763
-760
-760
-760
-759
-759
-761
-761
-761
-759
-757
-755
-752
-752
-752
-752
-753
-755
-756
-755
-752
-750
-751
-750
-749
-749
-748
-750
-750
-747
-744
-742
-741
-741
-741
-741
-742
-742
-740
-738
-736
-733
-730
-729
-728
-728
-727
-725
-724
-722
-719
-715
-712
-709
-708
-706
-704
-703
-703
-701
-697
-694
-692
-690
-689
-689
-688
-687
-686
-684
-684
-682
-682
-682
-684
-685
-687
-690
-693
-694
-695
-696
-699
-703
-707
-712
-717
-722
-725
-727
-729
-731
-734
-737
-740
-744
-748
-752
-753
-756
-757
-757
-758
-760
-761
-764
-768
-770
-770
-770
-771
-771
-770
-771
-772
-773
-774
-775
-775
-774
-773
-773
-772
-771
-772
-774
-775
-775
-776
-776
-775
-774
-772
-772
-772
-773
-774
-776
-775
-775
-772
-769
-770
-772
-774
-774
-774
-774
-774
-774
-772
-771
-771
-772
-772
-773
-773
-774
-773
-773
-771
-771
-770
-770
-771
-773
-775
-776
-775
-773
-771
-770
-769
-769
-771
-772
-774
-776
-775
-773
-772
-772
-773
-773
-775
-778
-778
-778
-779
-776
-773
-773
-774
-775
-776
-778
-780
-780
-778
-776
-775
-775
-776
-776
-776
-776
-778
-779
-778
-776
-775
-773
-775
-774
-774
-776
-776
-777
-776
-776
-777
-777
-777
-779
-780
-781
-781
-780
-779
-777
-777
-777
-777
-777
-778
-780
-780
-779
-779
-778
-776
-776
-778
-780
-780
-780
-781
-781
-780
-779
-777
-777
-777
-777
-777
-779
-780
-780
-781
-780
-778
-777
-777
-778
-779
-781
-781
-780
-778
-777
-777
-776
-775
-777
-778
-778
-779
-780
-779
-779
-778
-776
-775
-775
-772
-770
-768
-768
-769
-769
-768
-766
-767
-768
-770
-772
-772
-770
-766
-762
-759
-758
-760
-760
-762
-764
-766
-767
-767
-766
-766
-765
-766
-769
-770
-773
-775
-775
-773
-771
-771
-771
-773
-777
-779
-782
-784
-782
-780
-778
-778
-779
-780
-780
-781
-782
-783
-782
-781
-780
-780
-779
-779
-782
-784
-787
-786
-785
-783
-781
-779
-778
-779
-779
-781
-782
-782
-781
-779
-777
-777
-778
-778
-770
-753
-724
-690
-654
-616
-582
-556
-535
-551
-606
-653
-693
-728
-738
-737
-742
-749
-760
-777
-793
-806
-818
-824
-830
-835
-838
-833
-831
-830
-829
-823
-813
-805
-797
-790
-784
-779
-777
-776
-775
-775
-773
-772
-771
-770
-768
-767
-766
-766
-766
-767
-768
-768
-766
-764
-761
-761
-761
-760
-761
-762
-763
-761
-759
-757
-755
-754
-755
-755
-756
-758
-760
-759
-757
-754
-753
-752
-752
-752
-753
-753
-754
-752
-749
-748
-748
-746
-745
-745
-745
-744
-743
-742
-740
-739
-736
-733
-732
-731
-730
-731
-729
-727
-724
-720
-717
-715
-714
-711
-710
-710
-709
-706
-702
-699
-698
-697
-698
-698
-697
-697
-696
-695
-694
-693
-693
-692
-692
-694
-697
-699
-701
-702
-702
-703
-705
-708
-712
-716
-721
-725
-728
-730
-733
-734
-736
-739
-743
-746
-750
-753
-755
-756
-758
-759
-759
-760
-762
-765
-768
-771
-772
-771
-770
-770
-770
-770
-770
-773
-775
-776
-776
-777
-777
-776
-773
-773
-775
-774
-774
-776
-777
-776
-774
-772
-770
-771
-772
-773
-774
-775
-776
-774
-771
-772
-771
-770
-771
-772
-774
-775
-774
-773
-771
-769
-770
-769
-768
-770
-773
-773
-772
-772
-771
-770
-770
-770
-770
-771
-773
-775
-775
-773
-772
-772
-771
-771
-772
-772
-773
-775
-775
-775
-773
-772
-772
-773
-775
-775
-776
-777
-777
-776
-774
-772
-772
-772
-774
-774
-776
-777
-777
-775
-773
-773
-774
-773
-774
-776
-778
-779
-779
-776
-773
-773
-773
-773
-774
-775
-777
-777
-776
-775
-774
-774
-774
-776
-778
-778
-777
-777
-777
-777
-776
-774
-773
-775
-776
-776
-777
-778
-779
-777
-776
-774
-774
-775
-776
-777
-778
-778
-778
-777
-776
-776
-775
-774
-775
-776
-778
-778
-778
-777
-777
-776
-775
-775
-775
-777
-778
-779
-779
-777
-775
-775
-774
-773
-774
-774
-773
-772
-768
-766
-763
-760
-760
-763
-763
-763
-766
-767
-767
-766
-763
-759
-756
-756
-756
-756
-757
-758
-759
-760
-759
-759
-758
-759
-760
-762
-765
-767
-768
-769
-768
-766
-765
-767
-769
-772
-775
-776
-777
-776
-775
-774
-775
-776
-776
-777
-777
-779
-777
-775
-775
-776
-774
-775
-777
-777
-778
-778
-777
-776
-774
-773
-774
-774
-775
-776
-777
-777
-776
-773
-770
-768
-769
-769
-771
-774
-771
-754
-728
-693
-657
-619
-582
-552
-527
-517
-565
-622
-665
-704
-726
-729
-733
-742
-754
-775
-790
-803
-815
-822
-824
-828
-830
-830
-829
-828
-824
-815
-803
-792
-785
-779
-773
-769
-767
-765
-765
-764
-763
-761
-760
-759
-759
-759
-760
-760
-760
-759
-758
-756
-755
-753
-752
-754
-754
-754
-753
-753
-751
-749
-748
-747
-746
-747
-748
-748
-749
-750
-747
-744
-743
-742
-741
-742
-742
-742
-742
-741
-739
-736
-734
-734
-733
-733
-733
-734
-733
-730
-728
-727
-725
-723
-722
-721
-722
-722
-721
-719
-715
-710
-707
-705
-704
-704
-703
-701
-700
-697
-693
-690
-687
-685
-683
-683
-683
-683
-682
-680
-677
-674
-673
-673
-673
-675
-676
-678
-678
-679
-679
-680
-681
-684
-688
-692
-696
-700
-704
-707
-709
-711
-714
-718
-721
-725
-730
-734
-736
-737
-738
-740
-741
-742
-746
-750
-754
-755
-756
-757
-756
-756
-756
-757
-758
-760
-762
-763
-764
-763
-762
-761
-760
-760
-760
-762
-763
-764
-764
-763
-761
-760
-759
-759
-759
-760
-762
-763
-762
-761
-759
-758
-758
-758
-759
-760
-761
-761
-761
-761
-760
-756
-754
-755
-757
-759
-760
-761
-761
-761
-759
-758
-758
-759
-760
-760
-761
-762
-761
-760
-759
-758
-758
-759
-760
-761
-762
-763
-763
-762
-760
-760
-760
-760
-760
-761
-762
-764
-764
-763
-761
-760
-760
-761
-762
-762
-764
-765
-766
-765
-763
-763
-763
-764
-764
-765
-765
-764
-765
-765
-764
-763
-762
-763
-764
-765
-766
-766
-766
-764
-762
-762
-762
-763
-764
-765
-766
-766
-766
-764
-763
-762
-762
-763
-764
-765
-765
-766
-765
-764
-763
-761
-762
-761
-763
-764
-765
-767
-767
-765
-763
-762
-761
-762
-766
-768
-768
-767
-767
-767
-765
-764
-764
-764
-766
-766
-766
-767
-767
-765
-764
-764
-763
-765
-765
-765
-766
-765
-764
-761
-757
-753
-750
-749
-750
-752
-753
-754
-753
-751
-751
-754
-753
-752
-751
-750
-748
-747
-747
-744
-742
-743
-745
-746
-748
-749
-752
-752
-752
-752
-753
-756
-758
-759
-759
-760
-761
-763
-762
-763
-763
-763
-764
-765
-766
-767
-768
-768
-767
-766
-765
-764
-765
-766
-767
-767
-768
-769
-768
-767
-765
-764
-764
-766
-768
-769
-769
-768
-767
-765
-763
-763
-764
-762
-761
-762
-763
-763
-764
-761
-745
-721
-689
-652
-614
-575
-537
-507
-486
-512
-573
-631
-680
-713
-721
-725
-732
-746
-766
-784
-799
-812
-821
-825
-827
-828
-827
-824
-820
-815
-805
-793
-785
-778
-773
-770
-767
-764
-759
-755
-753
-754
-754
-752
-753
-754
-753
-753
-751
-749
-747
-746
-746
-747
-747
-747
-747
-745
-743
-741
-740
-740
-740
-741
-742
-743
-743
-742
-740
-739
-738
-737
-737
-737
-738
-738
-738
-737
-735
-733
-730
-729
-730
-730
-731
-730
-729
-727
-725
-722
-721
-720
-719
-718
-718
-717
-716
-713
-710
-707
-705
-703
-701
-699
-699
-698
-695
-693
-689
-685
-683
-681
-679
-677
-677
-676
-674
-672
-670
-667
-665
-664
-664
-665
-664
-665
-665
-664
-663
-661
-662
-665
-668
-671
-675
-678
-681
-684
-687
-689
-692
-697
-702
-706
-710
-714
-717
-719
-721
-724
-727
-730
-733
-737
-739
-742
-745
-746
-745
-745
-746
-747
-749
-751
-754
-755
-755
-756
-755
-753
-754
-755
-755
-756
-758
-759
-759
-757
-755
-754
-756
-757
-758
-758
-759
-760
-759
-758
-756
-755
-755
-755
-755
-757
-758
-758
-758
-757
-756
-755
-754
-755
-755
-756
-757
-758
-758
-757
-755
-754
-754
-755
-754
-756
-757
-758
-758
-757
-754
-754
-755
-754
-756
-757
-758
-758
-758
-757
-756
-756
-757
-758
-757
-758
-760
-763
-762
-760
-759
-758
-758
-759
-760
-761
-762
-762
-762
-761
-760
-759
-759
-759
-760
-761
-762
-763
-763
-762
-761
-759
-759
-761
-762
-762
-763
-763
-763
-763
-760
-758
-758
-760
-761
-762
-763
-764
-762
-760
-761
-760
-760
-760
-761
-764
-765
-764
-764
-762
-761
-760
-760
-763
-764
-764
-765
-765
-764
-763
-762
-763
-763
-763
-764
-765
-766
-766
-765
-764
-763
-762
-762
-764
-765
-765
-767
-766
-765
-764
-763
-763
-763
-765
-766
-767
-768
-768
-766
-764
-763
-761
-761
-758
-757
-756
-756
-755
-753
-751
-751
-751
-751
-752
-756
-758
-758
-756
-752
-749
-746
-746
-745
-743
-744
-746
-751
-753
-752
-750
-750
-751
-752
-754
-756
-759
-762
-761
-761
-759
-758
-759
-760
-763
-766
-767
-768
-768
-766
-766
-765
-765
-766
-767
-768
-768
-769
-769
-769
-768
-767
-766
-767
-768
-769
-769
-770
-769
-767
-767
-766
-766
-766
-768
-769
-770
-770
-769
-766
-764
-762
-762
-765
-765
-755
-734
-701
-665
-627
-589
-556
-528
-509
-536
-599
-651
-691
-720
-727
-727
-732
-741
-758
-777
-791
-804
-815
-820
-822
-823
-823
-822
-821
-819
-814
-804
-794
-785
-779
-773
-767
-764
-763
-762
-761
-762
-761
-759
-757
-755
-755
-755
-755
-755
-753
-754
-756
-754
-752
-750
-749
-749
-749
-749
-750
-750
-750
-748
-747
-746
-746
-745
-744
-745
-746
-746
-744
-743
-741
-739
-738
-738
-738
-738
-738
-738
-739
-739
-736
-733
-731
-731
-731
-731
-730
-730
-729
-727
-725
-722
-720
-721
-720
-720
-720
-718
-717
-714
-709
-706
-703
-701
-701
-700
-698
-698
-697
-694
-690
-687
-684
-684
-683
-682
-682
-683
-681
-678
-676
-674
-675
-677
-678
-679
-681
-683
-683
-683
-685
-687
-690
-694
-699
-703
-708
-711
-713
-713
-716
-719
-721
-726
-730
-732
-737
-740
-741
-742
-744
-745
-747
-748
-750
-753
-755
-756
-756
-757
-756
-757
-758
-759
-759
-760
-761
-762
-762
-761
-759
-759
-760
-759
-760
-762
-764
-764
-764
-764
-762
-761
-760
-760
-761
-762
-763
-763
-762
-760
-759
-758
-760
-759
-759
-760
-761
-762
-761
-761
-759
-758
-758
-757
-758
-760
-760
-761
-761
-760
-759
-758
-759
-757
-759
-761
-762
-763
-762
-761
-760
-758
-758
-759
-760
-761
-763
-764
-762
-761
-761
-761
-761
-762
-762
-763
-765
-766
-765
-763
-762
-761
-763
-763
-763
-765
-766
-766
-765
-762
-762
-763
-763
-763
-764
-765
-765
-765
-764
-764
-764
-763
-762
-763
-764
-766
-766
-766
-766
-764
-763
-763
-763
-764
-765
-767
-767
-767
-766
-766
-765
-763
-763
-766
-766
-764
-766
-767
-767
-766
-765
-765
-766
-766
-766
-768
-770
-769
-767
-765
-764
-763
-765
-766
-767
-768
-770
-769
-768
-766
-765
-765
-766
-767
-768
-768
-768
-768
-768
-767
-764
-762
-761
-760
-758
-758
-759
-757
-756
-754
-754
-753
-753
-755
-760
-760
-758
-755
-752
-749
-747
-745
-746
-748
-751
-754
-757
-755
-754
-752
-752
-754
-755
-757
-761
-763
-763
-762
-761
-760
-760
-762
-764
-765
-766
-768
-770
-769
-767
-768
-769
-767
-767
-768
-769
-771
-771
-771
-770
-768
-768
-767
-768
-770
-772
-772
-772
-770
-769
-768
-766
-766
-767
-768
-769
-768
-766
-765
-764
-761
-762
-762
-754
-735
-705
-673
-640
-602
-569
-543
-522
-540
-596
-643
-683
-716
-726
-725
-728
-737
-749
-766
-779
-793
-803
-809
-816
-820
-821
-821
-818
-816
-811
-805
-797
-789
-782
-774
-768
-764
-760
-757
-756
-756
-756
-757
-757
-755
-754
-753
-752
-751
-751
-750
-751
-752
-751
-750
-748
-747
-746
-745
-745
-744
-747
-749
-747
-744
-742
-741
-740
-740
-740
-740
-740
-740
-740
-738
-736
-734
-733
-733
-734
-734
-735
-734
-733
-730
-727
-726
-725
-724
-724
-723
-723
-722
-722
-720
-717
-716
-714
-714
-713
-712
-711
-709
-707
-705
-702
-698
-695
-693
-693
-692
-691
-689
-687
-685
-682
-681
-680
-679
-678
-678
-677
-678
-676
-675
-674
-671
-672
-674
-674
-676
-679
-682
-683
-684
-685
-688
-690
-694
-697
-702
-706
-710
-712
-714
-715
-718
-722
-726
-729
-733
-735
-737
-738
-739
-741
-742
-744
-745
-746
-748
-751
-753
-753
-753
-751
-752
-752
-752
-753
-754
-755
-755
-755
-755
-753
-752
-752
-752
-753
-753
-754
-754
-753
-752
-750
-749
-750
-751
-751
-752
-752
-751
-752
-751
-749
-749
-749
-750
-751
-753
-753
-753
-751
-750
-748
-748
-749
-750
-751
-752
-753
-754
-753
-752
-752
-752
-752
-752
-753
-753
-754
-754
-752
-752
-751
-751
-751
-753
-754
-755
-756
-756
-755
-753
-752
-752
-752
-753
-754
-755
-756
-756
-755
-754
-753
-754
-753
-753
-754
-756
-757
-757
-755
-754
-754
-753
-754
-755
-755
-756
-758
-758
-757
-756
-755
-754
-753
-756
-758
-758
-758
-758
-757
-756
-755
-754
-755
-756
-756
-758
-759
-757
-756
-755
-754
-754
-754
-755
-757
-757
-757
-757
-756
-754
-753
-754
-755
-755
-757
-759
-760
-759
-759
-757
-755
-753
-756
-757
-758
-759
-760
-759
-757
-756
-755
-755
-755
-757
-758
-758
-759
-759
-757
-754
-752
-751
-750
-747
-744
-743
-744
-743
-741
-740
-739
-740
-744
-747
-749
-749
-747
-743
-739
-736
-735
-735
-735
-737
-740
-742
-743
-742
-742
-742
-741
-742
-746
-749
-753
-755
-754
-752
-750
-750
-750
-752
-755
-757
-758
-759
-759
-759
-757
-756
-756
-756
-757
-757
-760
-761
-762
-761
-759
-757
-757
-755
-755
-757
-759
-760
-761
-761
-759
-758
-755
-755
-757
-758
-759
-758
-757
-755
-754
-753
-755
-755
-743
-722
-691
-654
-614
-571
-529
-497
-471
-489
-549
-610
-664
-701
-712
-715
-720
-731
-751
-773
-790
-804
-813
-817
-819
-818
-815
-812
-810
-807
-797
-787
-780
-773
-766
-760
-754
-751
-750
-749
-748
-748
-749
-748
-748
-745
-742
-741
-740
-740
-740
-741
-741
-741
-740
-739
-737
-735
-735
-735
-736
-736
-736
-735
-734
-733
-731
-729
-728
-729
-730
-731
-732
-731
-728
-727
-724
-722
-721
-721
-721
-723
-723
-723
-723
-721
-718
-715
-714
-714
-714
-713
-713
-712
-711
-708
-705
-703
-701
-700
-699
-697
-696
-694
-691
-687
-684
-682
-680
-678
-676
-675
-675
-672
-671
-667
-664
-662
-661
-659
-658
-657
-657
-656
-655
-654
-652
-652
-652
-652
-654
-657
-659
-662
-663
-664
-666
-669
-673
-679
-683
-689
-694
-698
-701
-702
-704
-707
-710
-713
-717
-722
-726
-728
-731
-732
-733
-734
-736
-738
-740
-741
-745
-747
-747
-746
-745
-745
-745
-746
-747
-749
-750
-749
-749
-749
-748
-748
-748
-748
-749
-750
-750
-750
-749
-747
-747
-747
-747
-747
-748
-749
-750
-749
-749
-748
-746
-746
-746
-747
-748
-751
-753
-751
-749
-748
-746
-746
-746
-749
-751
-752
-752
-752
-750
-749
-749
-749
-749
-750
-752
-753
-753
-752
-751
-750
-750
-749
-750
-751
-752
-753
-753
-753
-753
-752
-751
-750
-751
-753
-754
-755
-756
-756
-754
-752
-751
-752
-754
-754
-755
-757
-759
-758
-755
-755
-756
-755
-755
-756
-757
-758
-759
-758
-756
-756
-756
-755
-756
-757
-758
-759
-759
-758
-757
-755
-754
-755
-756
-756
-758
-758
-759
-759
-757
-756
-756
-756
-757
-759
-760
-760
-760
-760
-758
-756
-756
-756
-756
-758
-760
-762
-761
-760
-759
-758
-759
-760
-761
-763
-763
-763
-763
-762
-761
-758
-756
-755
-755
-754
-753
-749
-745
-745
-745
-745
-745
-745
-745
-747
-750
-752
-752
-749
-745
-741
-739
-738
-738
-738
-740
-742
-744
-745
-745
-743
-744
-744
-745
-748
-751
-755
-757
-756
-753
-751
-753
-753
-755
-758
-761
-763
-763
-762
-760
-759
-757
-759
-760
-760
-762
-765
-764
-764
-762
-760
-760
-762
-763
-763
-765
-765
-764
-762
-761
-760
-759
-760
-762
-764
-764
-764
-763
-761
-758
-757
-756
-757
-760
-758
-743
-718
-682
-643
-604
-565
-530
-503
-491
-534
-599
-653
-695
-717
-718
-719
-726
-740
-760
-779
-795
-809
-817
-819
-819
-819
-818
-818
-816
-812
-804
-794
-784
-776
-769
-763
-760
-758
-758
-759
-758
-757
-756
-754
-753
-751
-750
-750
-750
-751
-752
-752
-750
-748
-746
-745
-744
-744
-746
-747
-747
-747
-746
-743
-742
-743
-741
-741
-741
-741
-741
-741
-740
-739
-736
-734
-734
-735
-735
-735
-736
-735
-734
-731
-728
-727
-727
-727
-726
-726
-726
-726
-724
-721
-718
-716
-716
-716
-715
-715
-714
-712
-709
-707
-703
-700
-699
-697
-697
-696
-695
-694
-691
-688
-685
-680
-679
-680
-678
-680
-679
-676
-675
-673
-670
-668
-668
-670
-672
-674
-676
-677
-677
-677
-679
-682
-685
-689
-694
-698
-703
-708
-710
-711
-713
-716
-720
-725
-732
-735
-736
-738
-739
-739
-742
-745
-746
-748
-749
-752
-755
-756
-755
-755
-753
-754
-756
-758
-759
-761
-762
-762
-761
-760
-759
-759
-759
-759
-759
-760
-760
-760
-760
-759
-758
-758
-759
-760
-761
-762
-763
-763
-761
-759
-758
-758
-760
-761
-762
-761
-762
-760
-759
-758
-757
-757
-759
-760
-761
-762
-762
-763
-761
-759
-756
-755
-757
-758
-760
-760
-761
-761
-760
-759
-758
-758
-760
-761
-761
-762
-762
-762
-762
-762
-761
-761
-763
-764
-765
-765
-765
-764
-763
-763
-763
-763
-763
-764
-766
-768
-768
-766
-764
-763
-763
-764
-765
-765
-766
-768
-768
-766
-764
-761
-760
-763
-764
-765
-767
-768
-768
-768
-768
-767
-766
-766
-768
-767
-768
-769
-769
-768
-767
-764
-765
-766
-767
-769
-772
-772
-769
-767
-766
-765
-765
-765
-767
-768
-770
-771
-770
-769
-768
-766
-766
-767
-768
-769
-769
-770
-769
-768
-766
-765
-764
-765
-766
-766
-764
-762
-757
-755
-755
-754
-756
-758
-758
-759
-761
-763
-762
-760
-757
-750
-747
-747
-749
-750
-752
-756
-758
-757
-754
-753
-754
-754
-756
-758
-762
-765
-766
-764
-761
-760
-760
-762
-765
-769
-771
-772
-771
-770
-768
-768
-770
-771
-773
-773
-774
-775
-774
-772
-771
-771
-771
-772
-773
-774
-772
-773
-774
-771
-770
-770
-770
-772
-772
-772
-774
-772
-772
-770
-765
-764
-764
-766
-769
-766
-752
-724
-690
-653
-615
-582
-556
-534
-536
-588
-641
-680
-714
-730
-728
-729
-735
-746
-764
-779
-793
-807
-815
-819
-823
-824
-825
-824
-824
-822
-817
-807
-796
-787
-780
-774
-772
-770
-770
-768
-767
-766
-763
-762
-759
-757
-757
-758
-758
-759
-759
-760
-757
-755
-754
-753
-752
-752
-752
-753
-755
-755
-753
-750
-751
-750
-749
-750
-750
-751
-752
-751
-750
-748
-746
-744
-745
-745
-746
-746
-746
-745
-743
-741
-739
-737
-737
-737
-738
-738
-737
-735
-733
-731
-729
-727
-727
-726
-726
-725
-723
-721
-718
-715
-712
-710
-709
-709
-708
-708
-708
-706
-703
-698
-695
-695
-696
-693
-692
-693
-693
-692
-689
-687
-686
-685
-687
-688
-690
-692
-693
-694
-693
-694
-694
-698
-702
-705
-708
-712
-716
-719
-721
-722
-724
-726
-730
-733
-736
-739
-742
-745
-747
-748
-750
-752
-754
-757
-758
-761
-762
-762
-761
-763
-762
-761
-762
-765
-766
-767
-767
-767
-765
-764
-763
-764
-765
-766
-768
-769
-769
-768
-767
-765
-764
-764
-765
-766
-766
-767
-767
-765
-764
-762
-761
-763
-764
-766
-768
-768
-767
-766
-765
-764
-765
-764
-764
-766
-768
-769
-768
-766
-765
-764
-763
-764
-765
-766
-767
-769
-769
-768
-767
-765
-764
-765
-767
-767
-768
-769
-770
-768
-767
-765
-765
-765
-766
-768
-769
-769
-770
-769
-768
-768
-767
-767
-768
-770
-772
-772
-773
-772
-770
-769
-768
-769
-771
-771
-772
-774
-774
-773
-771
-769
-769
-768
-770
-772
-773
-773
-773
-771
-770
-769
-769
-769
-771
-772
-773
-773
-773
-772
-770
-770
-770
-770
-771
-773
-773
-774
-774
-773
-771
-769
-769
-770
-771
-772
-773
-776
-775
-773
-771
-771
-771
-773
-776
-777
-777
-779
-778
-774
-772
-771
-769
-770
-769
-769
-767
-764
-761
-759
-759
-758
-759
-759
-760
-762
-765
-767
-766
-764
-760
-755
-752
-752
-753
-753
-754
-756
-758
-758
-757
-756
-758
-758
-760
-764
-767
-768
-769
-768
-766
-765
-766
-767
-772
-775
-777
-778
-777
-777
-775
-773
-772
-774
-776
-778
-779
-779
-779
-777
-774
-773
-774
-775
-777
-777
-777
-778
-778
-776
-774
-774
-774
-775
-776
-777
-777
-777
-775
-773
-770
-769
-769
-769
-774
-772
-758
-734
-700
-661
-620
-582
-550
-526
-513
-552
-616
-665
-705
-727
-730
-732
-739
-752
-773
-791
-806
-818
-827
-829
-829
-830
-830
-830
-829
-826
-818
-808
-797
-789
-781
-775
-773
-771
-770
-769
-769
-768
-766
-763
-760
-759
-759
-759
-760
-760
-761
-760
-759
-757
-754
-754
-755
-757
-757
-757
-758
-758
-755
-752
-751
-749
-749
-749
-750
-750
-750
-750
-749
-746
-745
-744
-743
-744
-744
-745
-745
-744
-741
-738
-736
-735
-735
-735
-735
-736
-735
-733
-731
-729
-726
-724
-723
-722
-721
-721
-721
-718
-716
-712
-709
-706
-704
-703
-704
-703
-702
-699
-696
-691
-689
-685
-685
-685
-685
-684
-684
-681
-679
-677
-675
-674
-675
-676
-678
-679
-681
-682
-683
-683
-686
-689
-692
-696
-702
-705
-708
-711
-713
-715
-717
-720
-724
-729
-733
-737
-740
-741
-743
-743
-744
-746
-748
-750
-754
-758
-759
-759
-759
-758
-758
-759
-761
-762
-764
-764
-763
-764
-764
-762
-761
-762
-763
-765
-766
-767
-767
-766
-764
-762
-761
-761
-762
-763
-765
-766
-765
-763
-762
-761
-761
-762
-762
-763
-763
-765
-764
-764
-763
-761
-759
-760
-761
-762
-763
-764
-764
-763
-762
-761
-760
-760
-762
-763
-764
-765
-765
-764
-763
-763
-763
-764
-764
-765
-766
-767
-768
-766
-765
-763
-763
-765
-766
-767
-768
-769
-770
-767
-767
-765
-764
-765
-767
-768
-769
-769
-769
-768
-766
-765
-764
-765
-766
-768
-770
-770
-769
-768
-767
-766
-766
-766
-767
-767
-769
-770
-769
-767
-765
-764
-764
-765
-767
-769
-770
-770
-770
-769
-768
-768
-769
-768
-768
-769
-770
-770
-770
-768
-766
-766
-766
-767
-768
-769
-771
-772
-771
-768
-767
-766
-765
-766
-768
-769
-770
-771
-771
-769
-767
-766
-765
-765
-766
-766
-765
-761
-756
-752
-749
-750
-751
-753
-753
-754
-757
-760
-762
-759
-756
-752
-749
-747
-747
-748
-748
-749
-751
-752
-751
-751
-751
-753
-755
-756
-759
-762
-764
-764
-762
-761
-760
-762
-764
-767
-769
-771
-771
-770
-769
-767
-768
-768
-769
-772
-772
-772
-772
-770
-769
-767
-768
-769
-770
-771
-773
-773
-771
-770
-768
-768
-767
-768
-771
-772
-772
-772
-771
-768
-765
-762
-764
-767
-767
-771
-771
-755
-728
-692
-653
-612
-571
-536
-508
-492
-528
-590
-647
-692
-718
-722
-726
-734
-749
-771
-790
-804
-816
-823
-824
-826
-827
-826
-825
-823
-819
-809
-797
-787
-779
-774
-769
-765
-764
-764
-763
-762
-760
-759
-756
-755
-755
-755
-756
-756
-755
-755
-753
-750
-749
-749
-749
-749
-750
-750
-750
-750
-748
-746
-743
-743
-743
-744
-744
-745
-745
-744
-741
-740
-738
-737
-737
-738
-738
-738
-737
-735
-733
-732
-730
-730
-730
-730
-730
-730
-729
-727
-725
-722
-720
-718
-718
-718
-717
-715
-715
-712
-708
-704
-701
-700
-700
-699
-696
-695
-695
-692
-688
-684
-679
-678
-679
-678
-677
-677
-675
-672
-670
-668
-666
-666
-665
-666
-667
-668
-669
-669
-668
-670
-671
-673
-678
-682
-688
-692
-696
-699
-701
-704
-707
-710
-715
-720
-725
-728
-732
-733
-734
-736
-738
-740
-743
-745
-749
-751
-752
-753
-753
-753
-754
-755
-756
-758
-760
-761
-762
-761
-760
-758
-758
-758
-760
-761
-761
-761
-761
-760
-760
-758
-757
-757
-758
-759
-761
-762
-763
-763
-760
-759
-759
-760
-760
-761
-762
-763
-763
-761
-759
-757
-757
-758
-759
-760
-761
-762
-763
-763
-760
-759
-758
-758
-758
-760
-761
-763
-763
-762
-761
-760
-759
-759
-760
-762
-763
-765
-765
-764
-762
-760
-760
-760
-761
-763
-765
-765
-765
-765
-764
-763
-763
-765
-766
-767
-768
-769
-769
-767
-766
-765
-765
-764
-765
-768
-769
-769
-768
-767
-766
-765
-766
-767
-767
-768
-769
-769
-770
-768
-766
-766
-766
-767
-767
-768
-769
-769
-769
-769
-767
-766
-766
-766
-767
-769
-770
-770
-770
-769
-766
-765
-767
-768
-768
-769
-771
-771
-770
-768
-768
-769
-770
-771
-772
-772
-773
-774
-774
-772
-770
-770
-770
-769
-770
-773
-774
-774
-774
-771
-769
-768
-767
-767
-765
-763
-761
-761
-760
-759
-759
-758
-758
-759
-762
-764
-765
-765
-760
-755
-751
-750
-749
-750
-752
-755
-759
-759
-759
-758
-758
-757
-757
-760
-763
-769
-770
-770
-767
-765
-766
-767
-769
-771
-773
-775
-776
-777
-776
-775
-775
-774
-774
-775
-777
-778
-779
-778
-777
-776
-776
-776
-776
-776
-777
-779
-780
-778
-776
-775
-774
-773
-774
-776
-776
-777
-778
-776
-773
-771
-770
-770
-772
-772
-761
-738
-706
-670
-632
-595
-563
-539
-524
-558
-621
-671
-709
-734
-738
-737
-741
-751
-768
-786
-799
-812
-823
-827
-831
-832
-833
-831
-829
-827
-823
-814
-804
-796
-790
-782
-776
-771
-770
-772
-772
-772
-771
-770
-769
-765
-764
-763
-763
-764
-764
-764
-765
-765
-763
-761
-758
-757
-758
-759
-759
-760
-760
-759
-756
-754
-753
-754
-755
-756
-755
-755
-755
-754
-752
-750
-749
-748
-749
-750
-753
-752
-751
-748
-746
-745
-743
-741
-741
-741
-742
-742
-741
-739
-737
-734
-731
-731
-730
-730
-730
-729
-727
-724
-720
-716
-714
-713
-712
-712
-711
-709
-707
-704
-701
-698
-696
-694
-696
-697
-695
-695
-694
-693
-692
-690
-688
-688
-690
-690
-692
-696
-697
-699
-699
-699
-702
-705
-708
-712
-715
-720
-724
-727
-730
-732
-734
-736
-740
-744
-747
-750
-751
-753
-755
-755
-757
-760
-762
-765
-767
-770
-771
-770
-768
-768
-767
-767
-770
-773
-773
-774
-774
-772
-772
-771
-770
-772
-772
-773
-776
-777
-777
-775
-773
-772
-771
-771
-772
-774
-774
-775
-774
-773
-772
-770
-769
-770
-771
-772
-773
-774
-774
-773
-772
-770
-769
-769
-771
-772
-773
-772
-770
-771
-771
-769
-769
-771
-773
-774
-774
-774
-773
-771
-770
-770
-771
-772
-772
-773
-775
-777
-777
-776
-775
-775
-773
-773
-773
-774
-777
-779
-778
-776
-775
-774
-774
-776
-776
-777
-778
-779
-779
-777
-775
-774
-774
-775
-777
-779
-780
-782
-781
-778
-776
-774
-774
-775
-777
-779
-780
-779
-778
-777
-776
-775
-774
-775
-778
-779
-780
-780
-781
-779
-777
-775
-776
-777
-779
-780
-781
-781
-780
-777
-776
-778
-779
-779
-780
-780
-781
-783
-783
-781
-779
-779
-778
-779
-780
-781
-782
-780
-778
-775
-772
-767
-765
-764
-765
-769
-770
-770
-768
-766
-767
-769
-770
-769
-769
-766
-764
-762
-760
-759
-759
-759
-760
-763
-767
-767
-770
-771
-769
-768
-768
-770
-773
-774
-775
-775
-777
-777
-777
-777
-778
-778
-779
-780
-782
-783
-784
-784
-783
-781
-781
-781
-780
-781
-782
-784
-784
-784
-783
-782
-781
-780
-781
-781
-782
-783
-784
-783
-781
-780
-780
-779
-780
-780
-780
-780
-782
-781
-780
-781
-775
-757
-730
-698
-664
-629
-595
-567
-544
-539
-587
-642
-685
-721
-740
-741
-744
-750
-760
-775
-789
-802
-815
-822
-828
-836
-838
-838
-836
-832
-827
-820
-812
-804
-797
-792
-788
-783
-779
-775
-773
-771
-771
-770
-771
-772
-772
-771
-769
-767
-764
-764
-764
-765
-765
-766
-768
-765
-762
-761
-761
-760
-758
-759
-760
-762
-761
-759
-756
-754
-753
-753
-754
-755
-756
-756
-755
-753
-751
-749
-748
-747
-747
-748
-748
-748
-747
-745
-742
-740
-738
-737
-738
-738
-739
-739
-737
-735
-733
-729
-727
-725
-724
-724
-723
-722
-722
-717
-713
-710
-708
-706
-705
-704
-704
-703
-701
-697
-696
-694
-692
-691
-691
-690
-691
-691
-691
-690
-689
-688
-688
-690
-691
-693
-696
-701
-703
-704
-705
-707
-711
-715
-719
-723
-727
-731
-733
-734
-738
-739
-742
-745
-748
-751
-754
-758
-760
-761
-760
-760
-762
-765
-766
-767
-769
-772
-771
-770
-769
-768
-769
-769
-770
-772
-773
-772
-772
-771
-769
-769
-769
-769
-770
-771
-772
-772
-772
-770
-768
-767
-767
-768
-768
-769
-770
-771
-771
-768
-767
-766
-766
-768
-769
-770
-770
-769
-769
-769
-767
-766
-766
-767
-767
-770
-771
-771
-771
-770
-769
-767
-767
-768
-770
-770
-772
-774
-773
-771
-769
-768
-768
-770
-771
-771
-772
-773
-773
-771
-769
-769
-770
-771
-771
-773
-774
-775
-774
-773
-771
-770
-770
-770
-771
-775
-777
-777
-776
-773
-772
-771
-771
-771
-774
-775
-775
-776
-774
-772
-771
-770
-770
-772
-773
-773
-775
-775
-775
-774
-773
-772
-772
-773
-773
-774
-776
-776
-774
-771
-770
-771
-770
-772
-773
-775
-776
-776
-774
-773
-773
-772
-772
-773
-775
-776
-777
-776
-775
-775
-772
-771
-772
-773
-775
-776
-776
-777
-775
-774
-771
-769
-769
-769
-766
-763
-761
-760
-760
-758
-757
-757
-757
-759
-762
-766
-767
-766
-762
-756
-754
-753
-752
-751
-753
-756
-760
-760
-760
-757
-756
-757
-758
-760
-764
-767
-771
-771
-768
-766
-766
-766
-768
-771
-774
-775
-777
-776
-775
-773
-772
-771
-773
-775
-777
-778
-778
-779
-777
-774
-774
-774
-774
-776
-776
-777
-778
-778
-776
-773
-774
-773
-774
-774
-775
-777
-778
-775
-772
-769
-769
-769
-771
-773
-764
-743
-711
-674
-634
-592
-552
-521
-497
-512
-573
-635
-686
-721
-731
-733
-738
-748
-768
-789
-805
-822
-833
-835
-835
-834
-831
-829
-828
-824
-816
-806
-795
-787
-780
-772
-767
-765
-763
-763
-764
-763
-762
-761
-760
-757
-755
-754
-754
-755
-757
-756
-754
-753
-752
-750
-749
-748
-748
-749
-749
-749
-749
-747
-745
-743
-742
-742
-743
-743
-743
-744
-742
-740
-739
-736
-735
-735
-736
-736
-736
-736
-736
-734
-730
-729
-728
-728
-728
-727
-726
-726
-725
-721
-720
-717
-715
-715
-714
-711
-711
-710
-709
-705
-701
-698
-695
-693
-692
-691
-690
-688
-686
-682
-679
-677
-675
-673
-673
-673
-672
-671
-669
-667
-664
-663
-662
-662
-663
-665
-667
-669
-670
-670
-671
-673
-677
-681
-685
-689
-693
-700
-704
-707
-708
-711
-714
-717
-721
-725
-730
-734
-736
-738
-738
-740
-742
-744
-748
-750
-753
-755
-755
-755
-755
-754
-754
-756
-757
-759
-761
-762
-761
-760
-759
-758
-758
-759
-760
-762
-764
-763
-763
-761
-758
-757
-758
-760
-761
-763
-763
-763
-762
-760
-758
-757
-758
-759
-760
-760
-761
-762
-761
-760
-758
-758
-759
-760
-760
-762
-763
-763
-762
-761
-760
-759
-759
-760
-761
-763
-764
-764
-763
-762
-761
-761
-763
-763
-763
-764
-765
-765
-763
-763
-761
-762
-763
-764
-764
-764
-767
-767
-765
-763
-763
-763
-762
-763
-765
-766
-768
-768
-767
-765
-764
-764
-764
-765
-766
-767
-769
-769
-768
-766
-764
-764
-765
-767
-767
-767
-769
-768
-767
-766
-765
-765
-766
-767
-769
-769
-770
-771
-769
-766
-765
-765
-766
-767
-768
-770
-771
-771
-769
-767
-766
-766
-767
-768
-769
-770
-771
-771
-770
-769
-768
-767
-768
-769
-771
-772
-772
-772
-772
-769
-768
-768
-769
-769
-770
-770
-769
-765
-760
-755
-754
-755
-756
-758
-760
-759
-760
-762
-762
-761
-760
-756
-752
-752
-752
-753
-752
-752
-752
-752
-753
-752
-753
-756
-759
-761
-762
-764
-765
-765
-765
-764
-763
-764
-766
-769
-772
-772
-772
-771
-770
-770
-771
-772
-774
-776
-777
-776
-774
-772
-772
-771
-772
-774
-775
-776
-775
-774
-774
-773
-770
-770
-771
-774
-775
-775
-776
-775
-774
-771
-768
-767
-769
-769
-769
-772
-774
-762
-739
-705
-668
-631
-594
-561
-534
-513
-536
-596
-650
-690
-721
-730
-732
-737
-748
-766
-785
-799
-811
-818
-824
-829
-831
-831
-830
-829
-827
-820
-808
-797
-789
-783
-778
-775
-774
-771
-769
-768
-765
-763
-763
-762
-761
-762
-762
-763
-762
-761
-759
-758
-757
-756
-756
-755
-755
-760
-760
-757
-754
-753
-752
-750
-749
-751
-752
-753
-753
-751
-747
-745
-744
-745
-747
-747
-748
-748
-746
-744
-742
-740
-739
-739
-739
-737
-738
-738
-738
-736
-732
-731
-731
-731
-730
-729
-729
-728
-726
-722
-719
-716
-713
-713
-712
-710
-708
-707
-706
-703
-700
-696
-695
-693
-693
-692
-690
-690
-690
-687
-683
-681
-679
-678
-678
-680
-683
-683
-683
-681
-681
-682
-684
-687
-690
-693
-698
-702
-705
-706
-708
-711
-714
-718
-723
-728
-732
-736
-738
-739
-740
-740
-744
-748
-750
-752
-756
-758
-759
-759
-758
-758
-761
-764
-765
-767
-768
-767
-766
-766
-768
-767
-766
-768
-770
-770
-770
-771
-770
-768
-767
-766
-765
-766
-767
-770
-771
-770
-768
-767
-766
-765
-765
-766
-767
-769
-770
-771
-769
-767
-766
-765
-765
-767
-767
-767
-768
-768
-767
-766
-764
-763
-764
-765
-766
-768
-769
-769
-769
-767
-765
-765
-766
-767
-769
-768
-770
-770
-769
-768
-767
-765
-766
-769
-771
-771
-771
-772
-771
-770
-769
-767
-767
-769
-770
-771
-770
-771
-771
-770
-769
-769
-768
-769
-771
-772
-771
-772
-772
-771
-772
-772
-773
-773
-773
-774
-773
-772
-772
-770
-769
-769
-770
-772
-774
-776
-776
-776
-774
-772
-771
-770
-770
-772
-774
-774
-775
-774
-773
-771
-771
-771
-771
-773
-775
-775
-775
-776
-773
-770
-769
-770
-771
-772
-773
-775
-776
-774
-773
-773
-773
-771
-771
-770
-771
-771
-771
-767
-763
-761
-761
-760
-760
-761
-762
-763
-766
-768
-766
-764
-762
-756
-754
-756
-756
-756
-757
-757
-757
-757
-758
-758
-760
-761
-762
-763
-767
-767
-767
-766
-766
-766
-767
-767
-769
-770
-773
-773
-771
-773
-775
-774
-775
-776
-778
-779
-779
-778
-776
-774
-774
-774
-775
-776
-777
-778
-778
-778
-777
-775
-775
-776
-776
-777
-777
-778
-777
-775
-774
-772
-770
-768
-769
-771
-774
-776
-767
-746
-717
-683
-647
-612
-580
-557
-539
-552
-605
-651
-689
-721
-731
-731
-736
-745
-759
-777
-788
-799
-809
-814
-820
-826
-829
-831
-829
-828
-823
-816
-804
-794
-787
-781
-777
-774
-773
-773
-770
-767
-763
-760
-759
-759
-760
-762
-764
-765
-763
-761
-759
-756
-754
-755
-755
-755
-756
-756
-754
-753
-751
-748
-748
-749
-751
-753
-753
-752
-751
-749
-747
-747
-747
-746
-746
-747
-747
-747
-745
-743
-741
-740
-738
-738
-739
-740
-739
-738
-736
-734
-732
-730
-729
-730
-729
-728
-726
-726
-724
-720
-717
-715
-712
-711
-710
-708
-707
-706
-704
-702
-699
-696
-694
-694
-693
-691
-690
-690
-689
-688
-686
-684
-683
-682
-684
-685
-686
-688
-688
-688
-688
-688
-690
-693
-696
-700
-705
-708
-709
-710
-713
-716
-719
-722
-726
-729
-733
-736
-739
-740
-739
-741
-743
-746
-750
-754
-755
-757
-757
-754
-754
-755
-756
-758
-760
-762
-763
-764
-764
-762
-761
-761
-761
-762
-764
-764
-765
-766
-765
-763
-762
-761
-761
-763
-764
-766
-764
-763
-761
-759
-758
-759
-760
-760
-761
-762
-763
-763
-761
-760
-759
-758
-758
-760
-761
-762
-764
-762
-760
-760
-758
-758
-759
-760
-760
-761
-761
-761
-760
-758
-758
-758
-759
-761
-763
-762
-764
-765
-763
-761
-760
-759
-759
-761
-763
-764
-764
-764
-764
-763
-762
-761
-762
-763
-765
-766
-766
-768
-766
-764
-762
-762
-761
-763
-765
-766
-767
-765
-764
-762
-762
-762
-762
-764
-765
-766
-767
-765
-763
-761
-760
-760
-762
-763
-764
-766
-768
-768
-766
-764
-764
-763
-762
-764
-767
-768
-769
-768
-766
-764
-764
-763
-764
-765
-767
-768
-768
-767
-766
-765
-763
-763
-764
-766
-767
-767
-767
-766
-764
-761
-756
-752
-749
-749
-752
-753
-754
-754
-751
-750
-751
-753
-753
-754
-753
-753
-750
-748
-746
-743
-741
-743
-746
-749
-752
-753
-754
-754
-753
-753
-755
-756
-759
-761
-761
-762
-762
-761
-760
-761
-762
-763
-765
-766
-767
-768
-768
-766
-766
-766
-765
-764
-765
-767
-768
-768
-768
-768
-767
-765
-765
-765
-766
-768
-768
-769
-769
-766
-765
-764
-764
-764
-765
-764
-764
-761
-760
-759
-761
-764
-757
-736
-707
-673
-638
-600
-561
-530
-503
-505
-561
-621
-668
-707
-723
-726
-730
-739
-753
-773
-788
-802
-814
-820
-823
-825
-824
-823
-819
-815
-807
-798
-790
-783
-777
-772
-765
-762
-759
-756
-753
-753
-753
-753
-753
-754
-753
-751
-747
-747
-747
-747
-748
-750
-749
-748
-748
-746
-743
-741
-741
-741
-741
-741
-742
-742
-740
-739
-737
-735
-735
-735
-735
-735
-736
-735
-734
-732
-730
-729
-728
-728
-728
-728
-728
-728
-728
-725
-722
-721
-720
-718
-718
-717
-717
-718
-715
-712
-709
-706
-705
-704
-702
-702
-700
-698
-694
-692
-688
-686
-683
-681
-679
-678
-677
-676
-674
-672
-669
-665
-663
-663
-663
-663
-663
-663
-662
-661
-659
-658
-659
-661
-664
-667
-670
-672
-675
-677
-681
-683
-687
-691
-696
-701
-705
-709
-711
-712
-713
-717
-721
-724
-727
-730
-735
-737
-737
-738
-738
-738
-740
-743
-746
-748
-751
-752
-752
-750
-749
-749
-749
-750
-752
-753
-754
-753
-753
-752
-751
-750
-751
-752
-752
-753
-754
-754
-752
-750
-749
-749
-749
-749
-750
-751
-751
-752
-751
-748
-747
-748
-749
-750
-751
-751
-751
-752
-751
-749
-748
-747
-748
-748
-750
-751
-752
-752
-751
-750
-749
-749
-749
-750
-751
-753
-753
-753
-752
-750
-750
-750
-750
-753
-753
-754
-754
-754
-753
-751
-750
-749
-750
-752
-754
-756
-756
-756
-755
-754
-752
-752
-753
-754
-756
-757
-757
-756
-756
-754
-754
-754
-754
-754
-756
-757
-757
-756
-755
-753
-753
-753
-754
-755
-756
-758
-759
-757
-755
-754
-753
-753
-755
-756
-757
-758
-758
-756
-755
-754
-754
-753
-753
-754
-754
-755
-756
-755
-753
-752
-751
-751
-752
-751
-749
-747
-744
-741
-741
-739
-738
-739
-739
-742
-745
-748
-749
-748
-745
-740
-736
-734
-733
-733
-734
-736
-738
-739
-739
-738
-737
-738
-739
-741
-745
-748
-750
-750
-748
-745
-746
-747
-749
-752
-755
-757
-757
-757
-755
-754
-754
-754
-755
-755
-757
-758
-758
-758
-756
-755
-755
-756
-758
-759
-760
-761
-759
-757
-756
-756
-755
-755
-756
-757
-758
-758
-757
-755
-752
-748
-749
-750
-751
-753
-752
-736
-711
-675
-635
-595
-555
-519
-491
-479
-520
-585
-641
-685
-707
-710
-712
-721
-738
-761
-780
-794
-807
-814
-814
-814
-813
-811
-810
-808
-803
-794
-783
-773
-765
-758
-753
-751
-749
-747
-747
-746
-745
-743
-741
-739
-738
-738
-738
-739
-739
-739
-737
-736
-734
-733
-732
-732
-733
-734
-734
-734
-732
-730
-729
-727
-727
-727
-727
-728
-728
-727
-726
-724
-723
-721
-720
-721
-722
-723
-723
-722
-720
-717
-715
-715
-714
-713
-712
-712
-712
-711
-709
-707
-704
-702
-700
-699
-699
-698
-697
-695
-693
-690
-685
-683
-680
-678
-676
-675
-674
-673
-670
-667
-663
-659
-657
-657
-657
-655
-654
-653
-653
-651
-649
-647
-646
-645
-646
-649
-651
-651
-652
-654
-656
-659
-662
-666
-670
-675
-680
-683
-686
-689
-691
-694
-698
-703
-708
-711
-714
-718
-720
-720
-720
-722
-725
-728
-731
-733
-735
-737
-738
-737
-737
-737
-739
-741
-742
-744
-744
-744
-743
-742
-741
-741
-742
-743
-745
-746
-746
-746
-744
-742
-741
-740
-741
-743
-744
-746
-748
-746
-745
-743
-741
-740
-741
-743
-743
-744
-745
-745
-743
-741
-740
-740
-740
-741
-743
-744
-744
-743
-743
-741
-740
-741
-741
-743
-743
-743
-744
-744
-743
-741
-740
-739
-741
-743
-744
-746
-747
-747
-746
-744
-742
-742
-742
-742
-745
-747
-748
-748
-748
-746
-745
-745
-746
-747
-748
-748
-748
-748
-747
-745
-744
-745
-748
-748
-750
-750
-749
-749
-748
-746
-745
-745
-746
-747
-748
-750
-750
-749
-747
-746
-746
-745
-746
-748
-747
-747
-748
-748
-746
-746
-746
-746
-747
-748
-750
-751
-752
-751
-750
-748
-747
-747
-748
-748
-749
-750
-750
-750
-749
-748
-748
-747
-747
-748
-748
-748
-745
-740
-735
-733
-734
-734
-735
-737
-738
-738
-740
-742
-740
-738
-735
-732
-729
-729
-730
-730
-729
-729
-729
-730
-731
-730
-731
-734
-734
-736
-739
-740
-743
-742
-741
-740
-741
-743
-745
-747
-748
-748
-748
-749
-749
-749
-749
-750
-752
-752
-751
-752
-751
-749
-748
-749
-750
-751
-753
-754
-754
-753
-751
-749
-749
-749
-749
-750
-750
-751
-752
-752
-749
-747
-745
-745
-745
-744
-745
-748
-744
-727
-699
-665
-632
-598
-564
-536
-515
-511
-557
-613
-654
-689
-707
-709
-711
-720
-733
-751
-765
-776
-787
-795
-799
-803
-806
-807
-806
-805
-801
-793
-782
-770
-763
-758
-754
-752
-750
-748
-745
-741
-739
-738
-737
-738
-739
-739
-739
-738
-737
-736
-734
-732
-731
-730
-731
-732
-733
-733
-732
-731
-730
-729
-728
-727
-727
-728
-728
-727
-726
-725
-724
-722
-723
-723
-722
-723
-723
-722
-721
-720
-716
-715
-715
-714
-716
-717
-716
-716
-714
-711
-709
-707
-704
-704
-703
-703
-703
-700
-699
-696
-694
-691
-689
-688
-687
-686
-684
-683
-680
-677
-674
-672
-670
-668
-667
-668
-668
-667
-664
-660
-658
-655
-655
-656
-656
-659
-661
-661
-660
-660
-659
-660
-661
-664
-669
-674
-677
-681
-683
-685
-686
-689
-693
-696
-700
-705
-709
-712
-712
-712
-715
-717
-720
-724
-726
-728
-729
-730
-732
-731
-731
-733
-733
-734
-737
-739
-740
-740
-740
-739
-738
-738
-738
-740
-740
-742
-741
-741
-740
-739
-737
-737
-739
-739
-739
-741
-741
-740
-739
-737
-736
-736
-737
-737
-738
-737
-737
-737
-737
-736
-735
-734
-735
-737
-737
-738
-739
-738
-735
-734
-733
-733
-736
-736
-736
-738
-739
-739
-738
-736
-736
-736
-737
-737
-738
-739
-740
-739
-737
-736
-735
-736
-737
-737
-738
-739
-740
-741
-740
-738
-736
-737
-738
-739
-741
-741
-742
-741
-739
-738
-738
-737
-738
-738
-740
-741
-743
-743
-741
-740
-738
-738
-739
-740
-741
-740
-740
-741
-740
-739
-739
-739
-739
-740
-741
-742
-743
-742
-739
-738
-738
-739
-739
-740
-742
-743
-743
-742
-740
-739
-739
-740
-741
-742
-743
-742
-742
-740
-740
-738
-739
-740
-739
-740
-741
-742
-742
-741
-738
-736
-735
-732
-728
-726
-727
-730
-730
-729
-728
-726
-728
-731
-733
-734
-734
-731
-728
-724
-722
-720
-717
-720
-723
-725
-726
-729
-730
-730
-727
-727
-729
-729
-730
-734
-738
-737
-736
-736
-736
-735
-736
-738
-739
-740
-741
-742
-743
-742
-740
-739
-740
-741
-742
-744
-744
-745
-745
-744
-742
-740
-740
-741
-742
-743
-745
-746
-745
-743
-743
-742
-741
-742
-742
-741
-741
-740
-738
-737
-735
-736
-736
-728
-708
-679
-648
-613
-577
-543
-517
-497
-515
-572
-621
-659
-689
-700
-700
-702
-709
-722
-742
-756
-769
-780
-787
-794
-798
-798
-796
-791
-789
-786
-779
-770
-763
-759
-752
-745
-741
-737
-733
-732
-732
-732
-732
-733
-732
-729
-727
-727
-725
-724
-725
-726
-726
-726
-726
-723
-721
-720
-719
-719
-720
-723
-722
-721
-719
-717
-716
-715
-715
-715
-716
-717
-715
-715
-714
-712
-711
-709
-709
-710
-712
-712
-711
-711
-709
-706
-704
-703
-702
-702
-702
-701
-701
-701
-698
-695
-692
-690
-689
-688
-687
-686
-686
-684
-681
-677
-674
-671
-669
-668
-668
-668
-666
-664
-660
-657
-655
-655
-654
-653
-653
-653
-653
-653
-651
-649
-647
-647
-650
-649
-650
-653
-657
-659
-660
-661
-663
-665
-669
-673
-678
-682
-687
-690
-690
-691
-694
-697
-699
-702
-706
-710
-713
-715
-716
-716
-717
-719
-722
-723
-726
-729
-730
-730
-729
-729
-728
-728
-730
-731
-732
-733
-733
-733
-732
-732
-731
-731
-730
-730
-732
-733
-733
-732
-731
-729
-728
-728
-729
-729
-730
-731
-732
-731
-729
-728
-728
-727
-727
-729
-730
-731
-732
-731
-728
-727
-726
-726
-728
-729
-731
-731
-731
-730
-729
-729
-728
-728
-729
-730
-732
-732
-732
-732
-731
-730
-729
-728
-731
-732
-733
-734
-735
-735
-734
-732
-731
-730
-730
-733
-735
-736
-737
-736
-735
-734
-734
-733
-734
-734
-735
-736
-737
-735
-734
-733
-734
-734
-735
-736
-736
-737
-738
-738
-735
-734
-734
-733
-735
-736
-737
-739
-739
-737
-735
-734
-734
-734
-736
-736
-738
-739
-738
-739
-736
-734
-733
-734
-735
-735
-736
-738
-737
-738
-737
-736
-736
-735
-736
-738
-739
-739
-738
-738
-737
-736
-735
-736
-737
-738
-739
-740
-740
-740
-737
-735
-735
-736
-738
-738
-739
-740
-740
-737
-736
-735
-731
-728
-725
-725
-726
-727
-728
-727
-724
-721
-723
-726
-727
-727
-727
-725
-723
-720
-719
-716
-715
-716
-719
-721
-724
-725
-725
-724
-722
-721
-723
-726
-729
-734
-735
-734
-734
-734
-732
-732
-733
-737
-738
-740
-741
-742
-741
-738
-738
-739
-738
-739
-739
-741
-742
-742
-741
-740
-739
-738
-738
-739
-740
-741
-741
-742
-741
-740
-738
-738
-737
-738
-740
-740
-740
-739
-736
-735
-733
-732
-734
-728
-710
-684
-649
-614
-575
-534
-499
-470
-466
-518
-581
-634
-676
-695
-698
-700
-709
-725
-747
-765
-780
-793
-800
-801
-800
-798
-795
-793
-790
-784
-773
-765
-758
-751
-744
-738
-733
-731
-729
-728
-728
-729
-729
-728
-727
-724
-723
-721
-720
-721
-722
-721
-722
-721
-720
-718
-716
-715
-715
-716
-716
-716
-717
-717
-714
-712
-710
-710
-710
-710
-710
-711
-711
-710
-708
-707
-706
-704
-703
-703
-703
-704
-705
-705
-702
-699
-696
-695
-695
-694
-694
-694
-693
-693
-691
-688
-684
-682
-681
-680
-679
-679
-678
-675
-672
-668
-664
-662
-660
-659
-658
-657
-655
-652
-650
-647
-643
-641
-639
-639
-638
-637
-637
-636
-634
-631
-630
-630
-631
-632
-634
-636
-639
-639
-640
-643
-646
-650
-654
-657
-662
-666
-670
-674
-677
-678
-681
-685
-689
-693
-698
-702
-705
-706
-707
-708
-709
-710
-711
-714
-717
-720
-722
-723
-722
-722
-722
-723
-724
-725
-725
-727
-728
-728
-727
-725
-724
-724
-725
-726
-728
-729
-729
-729
-728
-726
-725
-725
-726
-727
-729
-730
-730
-729
-725
-723
-724
-725
-725
-725
-726
-728
-728
-727
-725
-723
-721
-722
-723
-725
-725
-727
-727
-726
-725
-724
-724
-724
-725
-727
-729
-729
-730
-730
-728
-727
-727
-726
-727
-728
-729
-730
-731
-731
-729
-728
-728
-729
-730
-732
-731
-732
-734
-733
-732
-731
-730
-730
-731
-732
-733
-735
-734
-732
-731
-730
-730
-729
-731
-732
-734
-735
-734
-732
-731
-729
-730
-730
-731
-732
-733
-736
-736
-735
-733
-732
-732
-732
-732
-734
-736
-736
-735
-734
-733
-731
-731
-733
-733
-734
-735
-735
-736
-734
-734
-735
-734
-731
-731
-733
-735
-736
-735
-734
-732
-732
-730
-731
-731
-733
-734
-735
-735
-735
-733
-731
-731
-733
-735
-735
-736
-736
-737
-735
-734
-732
-731
-731
-730
-728
-726
-725
-724
-722
-720
-720
-720
-720
-724
-726
-725
-726
-723
-719
-716
-715
-714
-713
-715
-717
-719
-720
-720
-718
-717
-717
-718
-721
-723
-726
-730
-732
-731
-728
-727
-727
-727
-729
-734
-735
-737
-737
-738
-738
-737
-736
-735
-735
-737
-739
-741
-740
-740
-740
-738
-736
-735
-736
-737
-738
-740
-740
-740
-738
-736
-735
-734
-735
-737
-736
-738
-738
-735
-731
-731
-730
-730
-732
-730
-714
-690
-657
-620
-583
-543
-509
-482
-471
-515
-579
-630
-669
-691
-693
-696
-702
-714
-737
-755
-769
-783
-791
-795
-795
-793
-793
-792
-790
-788
-780
-771
-761
-754
-747
-740
-736
-735
-734
-732
-732
-731
-731
-730
-727
-725
-722
-722
-724
-725
-727
-726
-725
-723
-721
-718
-717
-717
-719
-720
-720
-721
-721
-721
-718
-715
-714
-715
-715
-715
-717
-718
-716
-714
-713
-712
-711
-711
-710
-711
-711
-712
-711
-709
-706
-703
-701
-702
-703
-703
-701
-700
-700
-698
-695
-693
-692
-690
-690
-690
-690
-688
-686
-683
-680
-676
-673
-672
-670
-669
-668
-666
-662
-660
-657
-654
-653
-653
-653
-651
-652
-651
-651
-648
-645
-643
-643
-644
-645
-647
-649
-649
-650
-650
-650
-652
-655
-660
-664
-669
-674
-677
-678
-681
-684
-687
-690
-694
-698
-702
-705
-708
-710
-712
-713
-713
-716
-719
-722
-725
-728
-728
-730
-729
-728
-729
-731
-732
-733
-735
-735
-735
-735
-735
-733
-732
-734
-735
-736
-737
-738
-739
-738
-736
-734
-734
-735
-735
-734
-734
-736
-736
-736
-736
-734
-733
-734
-734
-734
-736
-738
-738
-736
-734
-731
-730
-731
-732
-733
-734
-735
-737
-737
-734
-733
-732
-732
-733
-735
-736
-737
-737
-736
-734
-734
-735
-736
-736
-736
-736
-738
-738
-738
-737
-736
-735
-735
-736
-737
-739
-740
-740
-740
-738
-736
-737
-737
-737
-738
-740
-740
-740
-740
-740
-739
-738
-738
-738
-739
-740
-742
-743
-742
-740
-738
-738
-738
-740
-740
-740
-741
-740
-740
-739
-739
-738
-739
-740
-740
-742
-740
-740
-740
-739
-740
-740
-738
-739
-740
-742
-742
-743
-743
-742
-740
-739
-740
-741
-743
-745
-745
-743
-742
-741
-741
-741
-742
-743
-744
-745
-745
-743
-741
-740
-738
-737
-736
-736
-734
-732
-732
-731
-729
-729
-728
-727
-730
-731
-732
-732
-730
-729
-725
-722
-722
-720
-721
-722
-726
-729
-730
-730
-729
-728
-727
-728
-730
-733
-737
-740
-738
-736
-736
-735
-736
-736
-739
-742
-743
-744
-744
-744
-743
-741
-741
-742
-743
-744
-744
-745
-744
-744
-743
-740
-740
-741
-743
-744
-745
-746
-746
-745
-744
-742
-742
-742
-743
-743
-743
-743
-741
-742
-740
-738
-738
-741
-742
-732
-713
-685
-653
-618
-581
-548
-521
-500
-516
-571
-619
-659
-692
-700
-699
-702
-710
-724
-743
-756
-771
-784
-790
-795
-797
-798
-797
-794
-792
-790
-783
-773
-764
-756
-749
-743
-739
-738
-737
-736
-737
-737
-737
-735
-734
-731
-728
-728
-729
-731
-731
-730
-730
-730
-728
-726
-723
-723
-724
-725
-725
-725
-724
-722
-720
-718
-718
-718
-719
-720
-720
-719
-718
-718
-715
-713
-713
-712
-713
-714
-713
-713
-712
-710
-709
-707
-706
-705
-705
-704
-705
-704
-702
-700
-699
-696
-694
-694
-693
-693
-692
-691
-688
-685
-681
-678
-676
-675
-674
-673
-672
-672
-670
-666
-662
-659
-658
-658
-658
-657
-656
-656
-655
-653
-651
-650
-649
-650
-651
-652
-655
-655
-655
-656
-656
-658
-662
-666
-669
-674
-678
-682
-684
-687
-688
-690
-692
-697
-701
-705
-708
-711
-712
-713
-714
-715
-717
-720
-722
-724
-726
-728
-728
-727
-726
-726
-727
-729
-730
-732
-733
-733
-732
-730
-729
-728
-729
-730
-730
-730
-731
-732
-731
-731
-729
-727
-727
-729
-730
-730
-731
-731
-729
-728
-727
-727
-728
-727
-728
-730
-731
-731
-731
-729
-726
-726
-727
-729
-730
-730
-730
-730
-730
-730
-728
-728
-729
-729
-730
-731
-733
-734
-731
-730
-729
-727
-729
-730
-731
-731
-732
-732
-732
-731
-731
-730
-731
-732
-732
-733
-735
-735
-734
-732
-731
-731
-732
-732
-733
-735
-736
-737
-736
-734
-733
-732
-732
-734
-735
-736
-737
-736
-736
-734
-732
-732
-733
-734
-735
-736
-736
-736
-736
-734
-732
-731
-733
-734
-735
-736
-736
-736
-735
-733
-732
-732
-733
-734
-735
-736
-736
-735
-734
-733
-732
-732
-733
-734
-736
-736
-736
-736
-734
-734
-733
-733
-733
-734
-736
-737
-737
-735
-733
-730
-728
-726
-723
-723
-721
-723
-723
-721
-721
-720
-721
-723
-723
-723
-722
-721
-718
-716
-715
-712
-710
-710
-714
-718
-719
-720
-720
-721
-720
-718
-720
-723
-727
-729
-729
-729
-729
-730
-729
-728
-730
-731
-733
-734
-735
-736
-735
-735
-735
-734
-734
-733
-735
-736
-736
-738
-738
-737
-735
-733
-732
-732
-733
-735
-737
-738
-738
-737
-734
-732
-731
-732
-733
-734
-733
-732
-731
-730
-728
-728
-727
-714
-690
-659
-624
-587
-547
-509
-478
-456
-483
-545
-604
-651
-683
-691
-695
-700
-709
-730
-751
-764
-777
-787
-793
-796
-795
-793
-790
-786
-781
-772
-762
-754
-748
-743
-737
-733
-728
-724
-723
-722
-722
-722
-721
-721
-722
-720
-718
-715
-714
-715
-714
-714
-714
-714
-713
-711
-711
-710
-709
-710
-710
-710
-710
-709
-709
-709
-707
-706
-705
-705
-705
-706
-707
-707
-705
-703
-700
-699
-698
-697
-698
-698
-698
-697
-696
-694
-692
-690
-689
-689
-688
-688
-688
-688
-684
-681
-679
-678
-675
-673
-673
-672
-671
-669
-666
-662
-659
-657
-655
-653
-652
-650
-649
-647
-643
-640
-637
-634
-633
-633
-634
-633
-633
-634
-632
-630
-628
-627
-628
-628
-631
-633
-636
-638
-640
-641
-641
-645
-649
-653
-657
-663
-668
-671
-673
-676
-679
-682
-685
-688
-691
-695
-699
-702
-703
-702
-703
-705
-707
-709
-711
-713
-715
-716
-716
-716
-716
-716
-717
-718
-719
-720
-721
-721
-721
-720
-719
-718
-718
-719
-720
-722
-723
-724
-722
-720
-718
-717
-718
-719
-720
-722
-722
-721
-720
-719
-719
-717
-716
-717
-719
-720
-721
-721
-721
-720
-718
-717
-718
-718
-720
-721
-722
-721
-720
-719
-719
-718
-717
-718
-719
-720
-722
-723
-723
-722
-721
-721
-723
-723
-724
-724
-725
-725
-724
-722
-722
-723
-724
-724
-726
-727
-728
-728
-726
-725
-724
-723
-724
-726
-728
-728
-728
-727
-726
-725
-723
-723
-725
-726
-727
-728
-729
-727
-726
-725
-723
-722
-724
-725
-727
-728
-729
-728
-726
-725
-725
-724
-725
-726
-727
-727
-727
-727
-727
-725
-725
-725
-726
-726
-727
-729
-730
-729
-728
-727
-726
-725
-726
-727
-727
-728
-730
-729
-726
-723
-720
-719
-718
-715
-715
-715
-715
-714
-714
-712
-711
-714
-716
-717
-717
-714
-711
-708
-707
-706
-704
-704
-706
-710
-713
-715
-715
-714
-714
-713
-712
-715
-719
-722
-724
-725
-724
-722
-723
-722
-722
-723
-726
-729
-730
-731
-731
-731
-729
-728
-727
-727
-728
-729
-730
-731
-732
-729
-727
-727
-727
-727
-729
-730
-732
-732
-731
-731
-728
-727
-727
-728
-729
-730
-730
-728
-727
-725
-723
-722
-725
-722
-706
-680
-646
-610
-572
-531
-496
-468
-457
-501
-565
-620
-663
-685
-688
-690
-697
-710
-731
-748
-763
-775
-785
-789
-789
-789
-786
-783
-781
-776
-767
-757
-750
-743
-737
-730
-726
-722
-721
-719
-720
-720
-721
-720
-717
-715
-714
-713
-712
-711
-712
-714
-714
-715
-715
-713
-711
-711
-709
-707
-709
-710
-711
-710
-709
-708
-705
-703
-703
-703
-703
-703
-704
-705
-704
-702
-700
-699
-699
-698
-698
-698
-698
-699
-697
-694
-691
-689
-689
-689
-689
-689
-689
-688
-687
-684
-681
-680
-678
-677
-675
-675
-674
-671
-669
-667
-664
-662
-659
-657
-655
-654
-654
-653
-650
-647
-644
-642
-641
-639
-638
-638
-639
-638
-636
-635
-632
-630
-630
-631
-635
-637
-639
-639
-641
-642
-644
-647
-650
-655
-659
-663
-668
-671
-674
-676
-677
-679
-684
-688
-691
-695
-699
-701
-703
-705
-706
-707
-709
-711
-714
-716
-717
-718
-719
-718
-718
-717
-718
-720
-722
-723
-725
-724
-722
-721
-718
-719
-720
-720
-722
-723
-723
-724
-723
-722
-720
-720
-721
-722
-722
-723
-724
-724
-722
-720
-718
-719
-719
-719
-720
-721
-723
-722
-720
-719
-719
-719
-720
-722
-724
-725
-725
-723
-722
-721
-721
-721
-722
-721
-722
-725
-726
-725
-723
-722
-722
-721
-722
-724
-724
-726
-725
-725
-725
-722
-721
-721
-722
-723
-726
-728
-729
-728
-727
-724
-724
-724
-724
-725
-725
-726
-728
-727
-726
-725
-724
-723
-725
-726
-728
-729
-729
-729
-727
-725
-724
-724
-725
-728
-729
-730
-731
-730
-729
-729
-728
-727
-728
-728
-729
-729
-728
-729
-729
-728
-727
-725
-725
-726
-728
-729
-730
-729
-727
-725
-724
-724
-724
-724
-722
-719
-717
-715
-715
-713
-713
-714
-714
-716
-718
-721
-721
-719
-714
-708
-706
-706
-706
-706
-708
-711
-713
-714
-713
-711
-713
-713
-714
-718
-720
-723
-724
-724
-722
-721
-721
-722
-724
-726
-729
-730
-731
-730
-729
-729
-729
-729
-729
-731
-731
-732
-730
-729
-728
-728
-729
-729
-730
-731
-733
-734
-734
-732
-730
-728
-728
-729
-731
-731
-732
-732
-731
-730
-728
-726
-725
-725
-727
-731
-723
-705
-676
-642
-606
-568
-534
-511
-492
-507
-564
-613
-651
-679
-687
-685
-688
-698
-711
-729
-741
-755
-767
-772
-777
-783
-785
-785
-783
-781
-778
-771
-760
-750
-743
-737
-731
-728
-726
-725
-726
-726
-724
-722
-720
-719
-718
-718
-717
-718
-719
-719
-718
-717
-714
-713
-712
-714
-714
-714
-713
-713
-713
-710
-708
-709
-708
-708
-709
-709
-710
-709
-709
-707
-704
-702
-702
-702
-704
-704
-704
-704
-702
-700
-697
-695
-694
-694
-695
-696
-696
-695
-694
-692
-690
-688
-687
-687
-686
-685
-683
-684
-682
-676
-673
-672
-670
-670
-670
-668
-667
-665
-663
-660
-656
-654
-653
-653
-652
-651
-651
-651
-649
-646
-644
-643
-643
-643
-644
-645
-646
-647
-648
-647
-647
-649
-652
-655
-658
-662
-667
-669
-671
-674
-676
-678
-681
-688
-693
-695
-697
-699
-702
-703
-704
-706
-708
-711
-713
-715
-718
-719
-717
-715
-715
-717
-718
-720
-721
-722
-723
-722
-722
-721
-720
-720
-720
-722
-723
-723
-724
-724
-722
-721
-721
-720
-721
-721
-722
-724
-724
-723
-721
-719
-718
-716
-715
-718
-720
-723
-725
-725
-724
-722
-721
-720
-721
-723
-724
-723
-724
-724
-722
-721
-720
-720
-722
-723
-724
-725
-725
-724
-723
-722
-721
-721
-722
-722
-724
-725
-726
-725
-725
-723
-722
-722
-724
-725
-726
-727
-727
-726
-725
-725
-723
-723
-724
-723
-726
-727
-727
-726
-726
-725
-725
-725
-725
-726
-727
-729
-730
-730
-728
-727
-726
-726
-726
-727
-728
-729
-729
-729
-726
-725
-725
-725
-726
-727
-729
-730
-730
-729
-728
-726
-726
-726
-727
-728
-729
-730
-730
-728
-727
-727
-726
-727
-728
-729
-728
-729
-732
-730
-727
-726
-724
-724
-724
-722
-720
-717
-715
-714
-714
-714
-714
-714
-715
-718
-720
-722
-722
-720
-715
-710
-708
-708
-707
-708
-710
-714
-715
-714
-714
-712
-713
-714
-716
-720
-723
-725
-726
-723
-720
-721
-723
-723
-725
-730
-730
-733
-733
-730
-729
-729
-728
-727
-729
-730
-731
-732
-732
-731
-731
-730
-730
-730
-731
-732
-733
-734
-734
-732
-731
-730
-729
-730
-731
-733
-733
-733
-732
-729
-724
-722
-726
-727
-731
-728
-712
-686
-652
-615
-577
-537
-504
-480
-471
-515
-578
-626
-665
-685
-687
-688
-695
-708
-729
-747
-761
-774
-782
-784
-786
-786
-786
-784
-783
-780
-772
-762
-752
-745
-737
-731
-728
-726
-725
-724
-725
-724
-722
-719
-714
-713
-715
-715
-714
-716
-720
-718
-716
-714
-710
-709
-710
-710
-710
-710
-710
-709
-707
-707
-706
-705
-705
-705
-705
-706
-706
-706
-704
-702
-700
-698
-698
-699
-699
-699
-699
-699
-698
-695
-693
-692
-692
-693
-693
-693
-692
-688
-686
-685
-684
-683
-681
-679
-677
-678
-676
-675
-674
-669
-665
-663
-662
-661
-659
-658
-656
-654
-651
-648
-645
-643
-642
-641
-641
-640
-639
-637
-635
-632
-631
-630
-630
-631
-631
-632
-634
-635
-636
-636
-637
-639
-642
-646
-650
-654
-658
-662
-665
-666
-667
-671
-675
-679
-684
-689
-692
-693
-694
-695
-696
-699
-701
-704
-707
-709
-711
-712
-712
-711
-712
-713
-714
-715
-716
-718
-719
-719
-718
-717
-716
-717
-717
-717
-718
-720
-721
-721
-720
-717
-715
-715
-715
-716
-716
-718
-720
-720
-719
-715
-714
-714
-716
-718
-718
-718
-719
-719
-717
-715
-715
-715
-716
-717
-718
-719
-719
-718
-718
-715
-715
-715
-716
-718
-719
-720
-720
-720
-718
-718
-717
-717
-718
-720
-720
-721
-723
-723
-719
-715
-717
-719
-719
-720
-722
-724
-724
-724
-722
-721
-720
-720
-720
-721
-723
-724
-725
-724
-721
-720
-720
-721
-721
-722
-723
-725
-724
-724
-723
-721
-720
-721
-723
-723
-724
-724
-725
-723
-721
-719
-720
-720
-722
-723
-724
-725
-723
-722
-721
-721
-721
-720
-720
-722
-723
-725
-725
-723
-721
-720
-720
-721
-721
-721
-724
-725
-725
-724
-722
-721
-721
-721
-721
-721
-721
-721
-721
-717
-712
-706
-704
-705
-707
-710
-712
-711
-709
-709
-709
-711
-711
-710
-708
-707
-706
-704
-701
-700
-700
-703
-704
-703
-703
-705
-708
-710
-711
-711
-712
-714
-715
-714
-715
-717
-718
-718
-719
-720
-720
-720
-721
-722
-723
-724
-726
-726
-725
-725
-724
-722
-722
-723
-724
-725
-726
-726
-725
-723
-723
-723
-723
-723
-724
-725
-725
-726
-724
-722
-722
-721
-719
-719
-719
-720
-720
-722
-723
-719
-701
-675
-640
-602
-563
-524
-490
-463
-448
-488
-549
-604
-650
-674
-679
-684
-693
-707
-727
-743
-757
-770
-778
-781
-783
-784
-782
-780
-777
-770
-759
-748
-739
-733
-729
-724
-722
-720
-719
-716
-712
-710
-710
-709
-709
-711
-711
-710
-708
-705
-704
-703
-703
-703
-703
-703
-704
-703
-702
-700
-699
-697
-697
-699
-700
-700
-700
-699
-697
-695
-694
-693
-694
-695
-695
-695
-694
-692
-691
-690
-689
-687
-686
-686
-687
-689
-688
-687
-684
-680
-679
-677
-675
-675
-675
-674
-674
-672
-669
-666
-664
-661
-659
-658
-656
-656
-656
-652
-649
-646
-643
-641
-640
-639
-639
-639
-638
-634
-631
-628
-627
-626
-625
-624
-626
-627
-626
-624
-622
-621
-621
-623
-625
-626
-628
-631
-635
-638
-640
-642
-645
-648
-652
-658
-662
-666
-670
-673
-674
-675
-678
-680
-685
-689
-693
-696
-700
-702
-702
-703
-703
-704
-706
-708
-710
-713
-713
-713
-712
-711
-713
-712
-712
-715
-717
-717
-717
-716
-713
-713
-712
-711
-712
-713
-714
-716
-716
-714
-714
-713
-712
-713
-714
-714
-714
-714
-714
-713
-711
-711
-711
-712
-712
-712
-713
-713
-714
-714
-713
-711
-711
-711
-713
-715
-716
-717
-717
-714
-714
-713
-713
-713
-715
-716
-716
-716
-716
-717
-715
-714
-712
-713
-715
-716
-718
-720
-719
-718
-716
-714
-713
-715
-717
-718
-720
-721
-721
-719
-717
-716
-715
-716
-718
-720
-719
-720
-720
-719
-718
-719
-718
-718
-719
-720
-721
-721
-721
-720
-718
-718
-718
-719
-720
-721
-721
-721
-720
-719
-719
-718
-718
-720
-721
-721
-722
-722
-722
-721
-719
-719
-718
-720
-721
-721
-721
-722
-721
-718
-713
-709
-706
-705
-706
-708
-711
-711
-710
-709
-709
-711
-712
-711
-710
-707
-705
-703
-700
-698
-699
-699
-701
-704
-705
-707
-710
-712
-712
-711
-711
-713
-716
-717
-718
-718
-719
-719
-720
-720
-720
-720
-721
-722
-725
-726
-727
-728
-727
-725
-722
-721
-723
-724
-725
-727
-728
-728
-727
-726
-723
-722
-723
-724
-725
-727
-728
-728
-727
-724
-722
-722
-722
-722
-721
-720
-722
-723
-724
-723
-713
-692
-663
-630
-596
-561
-529
-506
-486
-500
-557
-606
-645
-676
-686
-686
-690
-699
-711
-727
-738
-751
-762
-767
-774
-781
-785
-783
-778
-775
-770
-761
-753
-745
-739
-735
-731
-727
-723
-718
-715
-714
-714
-713
-713
-716
-717
-716
-713
-710
-708
-708
-708
-710
-711
-710
-711
-710
-707
-707
-704
-704
-705
-704
-704
-704
-705
-704
-703
-700
