-958
-961
-964
-966
-966
-965
-962
-961
-960
-961
-964
-968
-971
-972
-972
-970
-966
-965
-964
-965
-967
-971
-975
-975
-975
-972
-969
-968
-966
-967
-970
-973
-974
-974
-973
-970
-966
-964
-961
-958
-957
-958
-961
-964
-964
-959
-957
-956
-959
-963
-965
-966
-965
-962
-959
-953
-948
-946
-947
-951
-956
-960
-963
-965
-965
-962
-960
-957
-960
-965
-968
-971
-973
-974
-974
-972
-970
-970
-970
-973
-976
-979
-981
-982
-980
-978
-975
-972
-973
-976
-979
-982
-984
-984
-981
-978
-975
-972
-974
-975
-979
-982
-983
-981
-979
-977
-975
-973
-973
-973
-975
-977
-978
-978
-980
-977
-964
-943
-916
-889
-859
-830
-807
-789
-776
-804
-852
-889
-918
-939
-942
-942
-948
-955
-966
-979
-987
-996
-1005
-1014
-1025
-1032
-1035
-1032
-1029
-1024
-1016
-1008
-999
-995
-993
-990
-986
-982
-978
-973
-968
-967
-967
-969
-971
-972
-972
-971
-969
-965
-962
-961
-963
-964
-965
-967
-967
-966
-963
-959
-956
-954
-956
-959
-960
-962
-963
-962
-958
-955
-952
-952
-954
-956
-957
-959
-960
-957
-952
-950
-948
-948
-949
-951
-954
-955
-955
-953
-949
-945
-942
-942
-943
-945
-946
-947
-946
-943
-939
-935
-932
-932
-933
-935
-936
-936
-934
-931
-928
-924
-920
-919
-920
-922
-924
-926
-926
-924
-919
-915
-913
-913
-915
-918
-920
-921
-922
-920
-917
-915
-914
-914
-919
-923
-926
-929
-931
-932
-930
-929
-929
-931
-936
-941
-946
-950
-952
-951
-949
-948
-949
-950
-954
-960
-964
-966
-966
-965
-962
-960
-960
-961
-963
-967
-970
-972
-971
-969
-966
-964
-964
-965
-966
-969
-972
-972
-971
-969
-967
-964
-964
-963
-965
-970
-971
-971
-971
-968
-965
-963
-963
-964
-967
-968
-971
-974
-972
-969
-967
-966
-963
-964
-967
-971
-972
-972
-971
-969
-967
-964
-964
-966
-968
-971
-973
-974
-974
-971
-968
-966
-967
-968
-970
-973
-974
-975
-975
-973
-969
-968
-968
-969
-972
-975
-977
-978
-977
-974
-972
-970
-969
-971
-974
-978
-979
-979
-978
-976
-972
-971
-970
-972
-976
-979
-980
-980
-979
-976
-972
-970
-970
-972
-975
-978
-979
-980
-979
-976
-973
-971
-972
-974
-976
-979
-980
-980
-978
-975
-972
-970
-971
-973
-976
-980
-982
-982
-981
-977
-973
-972
-971
-972
-974
-976
-975
-972
-966
-961
-959
-959
-959
-961
-964
-967
-970
-973
-972
-968
-964
-959
-957
-957
-958
-959
-961
-962
-963
-961
-958
-958
-959
-963
-966
-971
-974
-975
-974
-971
-967
-966
-968
-970
-975
-979
-981
-981
-980
-977
-974
-974
-974
-975
-979
-985
-986
-985
-981
-977
-976
-975
-977
-979
-982
-984
-986
-985
-982
-979
-976
-976
-977
-980
-983
-983
-984
-982
-979
-974
-971
-971
-974
-980
-978
-963
-937
-905
-871
-834
-801
-778
-759
-770
-824
-877
-914
-941
-947
-944
-944
-950
-963
-984
-999
-1011
-1021
-1026
-1029
-1030
-1030
-1029
-1028
-1029
-1028
-1021
-1012
-1002
-993
-985
-979
-977
-976
-977
-979
-978
-976
-975
-971
-968
-965
-964
-966
-969
-970
-971
-970
-968
-965
-962
-959
-960
-962
-964
-965
-967
-965
-963
-958
-956
-955
-956
-958
-959
-961
-963
-962
-959
-955
-951
-950
-952
-953
-956
-956
-956
-956
-954
-950
-945
-945
-944
-946
-949
-950
-950
-949
-947
-941
-937
-937
-936
-937
-938
-939
-938
-935
-931
-927
-923
-920
-920
-921
-922
-922
-922
-920
-917
-914
-910
-909
-909
-911
-912
-913
-913
-913
-910
-905
-902
-902
-904
-907
-910
-913
-914
-913
-913
-912
-911
-912
-916
-921
-926
-930
-933
-933
-933
-933
-933
-936
-940
-945
-949
-952
-954
-955
-955
-954
-952
-954
-957
-960
-963
-965
-967
-966
-964
-962
-961
-960
-963
-966
-968
-970
-971
-968
-966
-963
-961
-961
-963
-966
-968
-969
-969
-967
-964
-962
-960
-960
-962
-964
-968
-968
-968
-966
-963
-960
-959
-960
-962
-964
-966
-967
-967
-966
-963
-961
-959
-960
-962
-965
-968
-968
-967
-967
-964
-962
-960
-961
-963
-967
-969
-971
-970
-968
-965
-964
-963
-963
-965
-969
-971
-973
-974
-971
-968
-966
-965
-966
-969
-972
-973
-974
-974
-971
-970
-967
-966
-967
-970
-973
-975
-976
-975
-973
-970
-967
-967
-968
-971
-974
-976
-977
-976
-973
-970
-968
-968
-969
-971
-973
-975
-977
-975
-972
-969
-967
-967
-969
-972
-974
-975
-976
-975
-973
-970
-968
-968
-969
-972
-975
-976
-977
-977
-973
-971
-968
-967
-970
-973
-976
-977
-976
-974
-973
-970
-968
-968
-971
-974
-975
-977
-977
-974
-970
-968
-964
-960
-959
-959
-961
-963
-965
-963
-960
-957
-956
-959
-963
-965
-966
-964
-961
-958
-953
-949
-948
-950
-954
-960
-962
-964
-964
-963
-961
-960
-961
-962
-968
-973
-973
-972
-972
-970
-967
-967
-968
-971
-974
-978
-980
-979
-979
-977
-974
-973
-973
-973
-975
-978
-980
-982
-981
-979
-976
-973
-972
-974
-976
-978
-981
-981
-980
-978
-976
-973
-971
-971
-973
-975
-977
-978
-977
-976
-973
-959
-936
-906
-874
-840
-804
-770
-742
-724
-756
-813
-867
-913
-940
-947
-950
-957
-968
-984
-998
-1010
-1020
-1028
-1033
-1037
-1040
-1038
-1035
-1031
-1022
-1011
-1001
-994
-990
-987
-983
-981
-977
-971
-967
-963
-963
-965
-966
-968
-969
-968
-966
-963
-960
-957
-957
-959
-961
-962
-962
-962
-961
-958
-955
-952
-951
-953
-955
-957
-958
-957
-956
-952
-949
-947
-948
-949
-952
-953
-953
-953
-950
-946
-943
-942
-942
-944
-946
-948
-948
-948
-944
-940
-937
-934
-933
-935
-935
-937
-936
-934
-932
-926
-922
-920
-919
-920
-920
-920
-919
-918
-914
-908
-905
-902
-903
-905
-904
-904
-904
-903
-899
-895
-893
-890
-890
-892
-895
-895
-897
-896
-893
-890
-888
-888
-892
-895
-900
-904
-907
-909
-909
-909
-910
-912
-917
-921
-927
-931
-935
-937
-937
-936
-936
-938
-942
-948
-952
-955
-958
-958
-957
-956
-955
-956
-958
-962
-964
-967
-967
-966
-964
-962
-961
-961
-963
-965
-968
-969
-970
-968
-965
-963
-961
-962
-963
-966
-968
-969
-969
-967
-965
-963
-961
-961
-963
-966
-968
-969
-970
-968
-965
-962
-961
-962
-964
-966
-968
-969
-969
-967
-964
-962
-961
-962
-964
-967
-969
-971
-971
-969
-967
-965
-963
-964
-967
-969
-972
-974
-974
-971
-968
-966
-966
-966
-969
-972
-974
-976
-975
-973
-970
-969
-968
-970
-972
-974
-976
-976
-977
-974
-972
-969
-968
-970
-973
-975
-976
-977
-977
-975
-973
-971
-971
-972
-974
-975
-978
-978
-978
-976
-973
-971
-971
-972
-974
-976
-979
-979
-977
-975
-972
-970
-969
-971
-973
-976
-978
-979
-978
-976
-973
-970
-971
-972
-975
-977
-977
-978
-977
-976
-973
-971
-971
-974
-975
-976
-979
-980
-978
-975
-973
-972
-972
-973
-976
-978
-979
-979
-977
-976
-973
-971
-972
-974
-974
-976
-978
-977
-973
-967
-961
-958
-959
-961
-964
-965
-965
-965
-967
-968
-964
-961
-961
-960
-959
-959
-960
-959
-958
-956
-956
-956
-958
-961
-962
-965
-967
-969
-969
-968
-968
-967
-966
-967
-969
-972
-975
-978
-978
-974
-972
-973
-975
-977
-979
-980
-982
-982
-980
-978
-974
-973
-974
-977
-979
-980
-981
-981
-980
-977
-974
-974
-975
-977
-979
-981
-982
-981
-980
-975
-971
-971
-970
-972
-975
-978
-975
-958
-931
-897
-862
-827
-795
-769
-749
-752
-804
-859
-900
-930
-941
-941
-943
-953
-968
-987
-1001
-1012
-1020
-1024
-1026
-1029
-1032
-1034
-1034
-1033
-1029
-1020
-1008
-996
-988
-983
-980
-979
-978
-977
-977
-975
-971
-966
-963
-963
-964
-967
-968
-968
-967
-965
-963
-960
-959
-958
-960
-962
-963
-963
-963
-961
-957
-954
-953
-953
-955
-958
-959
-959
-958
-957
-954
-951
-949
-951
-953
-955
-956
-958
-956
-953
-950
-948
-945
-946
-948
-948
-950
-951
-950
-947
-944
-940
-938
-939
-939
-940
-940
-939
-937
-933
-929
-926
-923
-924
-923
-925
-925
-924
-922
-919
-915
-912
-910
-909
-910
-911
-911
-911
-910
-907
-904
-901
-900
-901
-904
-906
-908
-909
-909
-907
-906
-905
-905
-908
-912
-917
-921
-925
-926
-925
-923
-926
-929
-932
-938
-942
-945
-948
-950
-950
-949
-949
-950
-953
-959
-963
-965
-967
-967
-965
-963
-962
-962
-965
-968
-971
-973
-974
-973
-972
-968
-965
-966
-969
-970
-971
-972
-972
-971
-969
-967
-965
-967
-968
-970
-972
-972
-972
-971
-968
-965
-964
-965
-967
-968
-970
-971
-971
-970
-967
-963
-962
-963
-965
-968
-971
-971
-971
-969
-968
-966
-965
-965
-967
-970
-972
-973
-973
-971
-968
-966
-965
-967
-970
-972
-973
-974
-974
-972
-970
-969
-967
-967
-970
-973
-975
-976
-976
-973
-971
-970
-971
-972
-972
-975
-977
-978
-976
-974
-972
-970
-969
-971
-974
-976
-978
-978
-978
-976
-973
-971
-969
-971
-973
-976
-977
-977
-977
-975
-973
-972
-973
-974
-975
-978
-979
-979
-978
-977
-975
-972
-971
-973
-976
-978
-979
-980
-979
-977
-974
-973
-972
-974
-977
-979
-980
-981
-979
-976
-975
-973
-972
-975
-977
-980
-981
-980
-980
-978
-975
-973
-974
-977
-979
-980
-981
-981
-981
-977
-974
-972
-971
-968
-968
-968
-969
-969
-969
-967
-963
-961
-965
-968
-970
-971
-970
-968
-965
-961
-958
-955
-955
-957
-961
-965
-968
-968
-967
-965
-964
-963
-966
-969
-973
-976
-977
-975
-973
-971
-970
-971
-974
-977
-979
-980
-981
-983
-981
-977
-976
-976
-977
-978
-980
-981
-983
-983
-982
-980
-978
-976
-977
-980
-982
-983
-984
-983
-981
-979
-976
-976
-977
-978
-979
-979
-978
-978
-976
-974
-973
-966
-950
-925
-895
-865
-835
-805
-779
-758
-777
-829
-873
-910
-939
-948
-948
-950
-957
-967
-982
-994
-1006
-1018
-1026
-1033
-1037
-1037
-1034
-1028
-1024
-1020
-1014
-1007
-1002
-998
-992
-987
-981
-974
-972
-971
-971
-972
-971
-972
-973
-972
-969
-965
-964
-964
-965
-967
-967
-967
-967
-966
-963
-959
-958
-958
-960
-962
-963
-964
-963
-962
-959
-955
-955
-955
-956
-959
-961
-961
-959
-957
-954
-952
-951
-951
-952
-954
-955
-956
-955
-953
-948
-946
-944
-945
-947
-949
-949
-948
-945
-943
-939
-936
-934
-933
-933
-934
-934
-933
-931
-928
-924
-919
-917
-917
-919
-920
-921
-919
-917
-915
-911
-907
-905
-907
-909
-911
-912
-913
-913
-910
-907
-905
-905
-908
-911
-914
-917
-920
-921
-919
-918
-917
-920
-924
-929
-934
-937
-940
-941
-941
-941
-940
-942
-945
-951
-954
-956
-960
-961
-960
-960
-958
-959
-961
-965
-968
-968
-970
-968
-966
-965
-964
-964
-967
-970
-971
-973
-973
-970
-968
-966
-964
-964
-966
-969
-971
-972
-972
-970
-968
-965
-964
-964
-965
-967
-969
-971
-971
-970
-968
-964
-962
-962
-965
-968
-970
-971
-971
-968
-966
-964
-963
-964
-967
-968
-971
-972
-972
-970
-967
-965
-965
-966
-967
-969
-971
-973
-973
-970
-967
-966
-967
-969
-970
-973
-975
-977
-976
-974
-971
-970
-969
-970
-972
-974
-976
-978
-977
-974
-972
-970
-970
-972
-974
-978
-979
-979
-978
-975
-973
-971
-970
-972
-975
-976
-978
-978
-977
-975
-973
-970
-972
-973
-974
-977
-979
-980
-978
-975
-973
-972
-972
-973
-975
-977
-979
-979
-978
-976
-973
-972
-971
-973
-976
-978
-979
-978
-978
-976
-973
-972
-973
-974
-976
-978
-979
-980
-979
-976
-974
-972
-972
-974
-977
-978
-980
-980
-979
-976
-973
-971
-972
-974
-976
-977
-978
-978
-977
-973
-968
-965
-964
-962
-963
-965
-967
-967
-965
-962
-959
-959
-962
-964
-966
-967
-964
-962
-959
-955
-952
-951
-953
-957
-962
-965
-966
-965
-964
-961
-960
-962
-964
-968
-971
-972
-972
-972
-971
-969
-968
-969
-971
-975
-977
-978
-979
-980
-977
-974
-972
-971
-973
-976
-978
-980
-980
-980
-977
-973
-972
-972
-974
-976
-978
-979
-980
-979
-976
-973
-972
-970
-970
-971
-972
-974
-975
-973
-974
-967
-951
-929
-900
-867
-833
-799
-768
-740
-726
-764
-823
-873
-915
-938
-943
-948
-955
-966
-983
-996
-1007
-1018
-1026
-1031
-1033
-1034
-1034
-1031
-1025
-1017
-1007
-997
-990
-986
-982
-979
-976
-971
-965
-962
-960
-959
-960
-962
-964
-966
-965
-963
-958
-954
-952
-952
-954
-956
-957
-958
-957
-955
-951
-948
-946
-946
-948
-951
-952
-952
-951
-949
-945
-943
-941
-941
-944
-947
-947
-948
-947
-945
-941
-938
-936
-937
-939
-940
-942
-942
-940
-938
-933
-930
-929
-929
-930
-931
-931
-931
-929
-925
-921
-918
-915
-914
-914
-916
-916
-915
-912
-907
-902
-899
-897
-897
-899
-899
-900
-900
-897
-893
-890
-886
-884
-885
-887
-889
-889
-889
-888
-886
-883
-882
-884
-886
-890
-895
-898
-900
-901
-901
-901
-902
-905
-909
-915
-921
-925
-928
-930
-929
-929
-929
-932
-937
-941
-946
-949
-951
-951
-951
-949
-948
-949
-953
-957
-959
-961
-963
-963
-960
-957
-955
-957
-959
-961
-963
-965
-964
-962
-960
-957
-956
-957
-959
-961
-963
-964
-964
-961
-958
-956
-955
-955
-958
-960
-962
-964
-962
-959
-957
-955
-954
-955
-957
-959
-961
-962
-962
-960
-958
-956
-954
-956
-959
-961
-962
-964
-964
-962
-960
-957
-955
-956
-958
-962
-965
-966
-965
-963
-961
-959
-959
-961
-963
-966
-967
-968
-968
-966
-964
-961
-961
-963
-966
-968
-970
-969
-968
-966
-964
-961
-960
-963
-966
-968
-970
-970
-969
-967
-964
-962
-963
-964
-967
-968
-969
-970
-970
-966
-965
-963
-964
-965
-967
-970
-972
-971
-969
-966
-964
-963
-964
-965
-967
-970
-972
-972
-970
-967
-965
-963
-964
-966
-969
-970
-973
-972
-970
-967
-966
-964
-964
-966
-969
-971
-972
-972
-971
-969
-966
-964
-965
-967
-968
-972
-973
-973
-971
-969
-966
-966
-966
-968
-970
-970
-972
-973
-971
-967
-965
-964
-964
-964
-964
-962
-959
-958
-956
-953
-954
-954
-954
-956
-961
-964
-965
-963
-957
-951
-947
-947
-947
-948
-951
-955
-957
-958
-955
-953
-952
-952
-953
-958
-963
-967
-968
-967
-964
-961
-960
-960
-961
-966
-971
-974
-974
-973
-972
-969
-968
-967
-968
-970
-973
-973
-973
-973
-973
-971
-968
-968
-970
-971
-973
-975
-975
-974
-972
-969
-967
-966
-967
-970
-971
-971
-970
-969
-966
-963
-963
-965
-957
-939
-913
-882
-849
-812
-777
-749
-729
-752
-812
-864
-905
-935
-941
-940
-942
-948
-963
-981
-996
-1010
-1022
-1029
-1031
-1030
-1027
-1023
-1020
-1018
-1013
-1005
-999
-993
-986
-978
-972
-968
-965
-963
-964
-966
-966
-966
-964
-962
-960
-958
-956
-957
-958
-960
-961
-961
-960
-958
-955
-953
-951
-951
-953
-955
-956
-957
-956
-954
-950
-949
-947
-947
-949
-952
-953
-953
-952
-950
-948
-944
-944
-945
-945
-947
-949
-950
-950
-946
-943
-939
-938
-939
-940
-942
-943
-943
-940
-937
-933
-931
-929
-928
-928
-930
-931
-930
-928
-923
-917
-913
-912
-911
-912
-912
-913
-913
-911
-906
-902
-900
-899
-899
-901
-902
-902
-902
-899
-896
-893
-891
-892
-895
-898
-902
-904
-906
-906
-905
-903
-904
-908
-913
-918
-922
-926
-928
-930
-930
-930
-931
-933
-938
-942
-947
-951
-953
-954
-952
-951
-951
-953
-956
-959
-962
-965
-966
-966
-963
-961
-961
-962
-963
-966
-968
-968
-969
-967
-965
-963
-962
-962
-964
-967
-968
-968
-967
-965
-962
-960
-960
-961
-962
-964
-966
-967
-967
-965
-961
-959
-957
-958
-961
-962
-964
-964
-964
-962
-959
-958
-958
-959
-960
-962
-964
-965
-964
-963
-961
-958
-958
-961
-962
-965
-965
-965
-966
-964
-961
-960
-960
-963
-964
-967
-969
-969
-968
-966
-963
-961
-961
-964
-967
-969
-971
-969
-968
-966
-964
-963
-963
-965
-967
-969
-971
-973
-972
-968
-966
-965
-964
-967
-970
-971
-972
-973
-972
-969
-967
-966
-966
-968
-970
-971
-973
-974
-972
-967
-966
-966
-967
-969
-972
-973
-974
-975
-973
-970
-968
-966
-966
-967
-971
-974
-974
-975
-973
-971
-969
-968
-969
-970
-973
-975
-976
-975
-973
-971
-969
-967
-969
-972
-975
-976
-977
-976
-974
-972
-970
-968
-970
-973
-975
-976
-977
-977
-975
-972
-970
-969
-970
-972
-974
-973
-973
-972
-967
-962
-957
-958
-959
-960
-963
-964
-964
-967
-966
-963
-960
-958
-957
-956
-957
-959
-958
-957
-956
-957
-957
-957
-959
-961
-964
-965
-966
-968
-966
-965
-965
-965
-965
-968
-971
-971
-974
-975
-974
-972
-971
-971
-972
-974
-977
-979
-978
-977
-975
-973
-971
-972
-973
-975
-977
-979
-978
-977
-975
-973
-971
-972
-974
-977
-977
-979
-978
-977
-973
-969
-966
-967
-968
-970
-975
-974
-961
-939
-907
-874
-838
-807
-781
-762
-753
-792
-843
-882
-916
-934
-936
-938
-945
-957
-976
-991
-1001
-1011
-1017
-1020
-1022
-1027
-1029
-1028
-1027
-1026
-1019
-1008
-997
-988
-981
-977
-975
-974
-972
-970
-969
-967
-963
-961
-960
-959
-960
-962
-964
-963
-961
-959
-957
-953
-953
-954
-956
-957
-958
-959
-958
-956
-952
-950
-949
-949
-951
-953
-955
-954
-953
-950
-946
-943
-945
-945
-948
-950
-949
-950
-950
-946
-942
-940
-939
-939
-941
-942
-943
-942
-940
-938
-934
-931
-930
-930
-931
-931
-931
-929
-927
-923
-919
-917
-916
-915
-916
-916
-916
-914
-911
-907
-904
-901
-900
-901
-900
-901
-902
-901
-898
-895
-893
-891
-891
-892
-894
-896
-898
-899
-897
-896
-895
-896
-898
-902
-906
-909
-912
-914
-914
-914
-916
-917
-920
-925
-930
-933
-936
-938
-938
-938
-938
-939
-942
-945
-949
-952
-954
-955
-955
-953
-952
-952
-954
-956
-958
-960
-961
-961
-959
-956
-956
-955
-956
-958
-960
-962
-963
-963
-960
-957
-955
-954
-955
-958
-959
-960
-961
-961
-959
-956
-953
-953
-955
-957
-959
-961
-961
-960
-957
-954
-953
-954
-955
-957
-960
-961
-962
-960
-958
-956
-954
-954
-956
-959
-961
-961
-962
-961
-959
-957
-955
-956
-957
-960
-962
-964
-964
-963
-961
-959
-957
-958
-960
-962
-964
-966
-967
-966
-963
-963
-962
-961
-961
-964
-966
-968
-968
-967
-965
-963
-962
-962
-964
-967
-969
-970
-968
-967
-966
-964
-963
-964
-966
-967
-968
-969
-969
-968
-966
-964
-963
-963
-965
-968
-969
-970
-970
-968
-966
-964
-963
-964
-966
-969
-970
-971
-971
-969
-966
-963
-963
-964
-966
-968
-970
-971
-971
-969
-967
-964
-963
-965
-967
-968
-971
-972
-971
-969
-965
-965
-964
-965
-968
-970
-971
-971
-971
-968
-966
-964
-964
-966
-967
-968
-970
-972
-971
-969
-966
-963
-963
-965
-967
-968
-967
-966
-964
-958
-953
-951
-951
-952
-955
-956
-957
-958
-960
-958
-955
-952
-950
-948
-949
-950
-951
-950
-950
-950
-951
-951
-950
-950
-953
-956
-958
-959
-960
-959
-958
-958
-958
-959
-962
-965
-967
-967
-968
-967
-965
-963
-964
-966
-968
-969
-971
-971
-970
-967
-965
-965
-965
-967
-969
-969
-971
-971
-970
-967
-964
-964
-966
-967
-967
-969
-970
-971
-967
-963
-960
-957
-958
-960
-963
-967
-965
-948
-922
-887
-851
-814
-777
-745
-720
-713
-757
-815
-867
-907
-925
-928
-932
-942
-959
-981
-997
-1011
-1019
-1023
-1023
-1022
-1022
-1022
-1020
-1020
-1014
-1003
-991
-981
-973
-966
-964
-963
-961
-960
-959
-957
-954
-951
-949
-948
-948
-950
-951
-951
-952
-951
-947
-943
-942
-942
-942
-943
-944
-946
-946
-944
-941
-938
-936
-936
-936
-938
-941
-942
-942
-939
-937
-933
-931
-931
-932
-934
-936
-936
-936
-933
-930
-928
-926
-926
-926
-927
-928
-928
-927
-925
-922
-918
-916
-915
-915
-916
-916
-915
-913
-909
-906
-901
-899
-897
-897
-897
-897
-896
-893
-890
-887
-883
-880
-880
-880
-880
-881
-881
-879
-876
-872
-869
-867
-868
-870
-871
-873
-873
-873
-872
-871
-871
-872
-874
-878
-883
-888
-892
-893
-894
-895
-897
-899
-902
-907
-911
-915
-919
-921
-922
-921
-921
-924
-927
-931
-935
-938
-940
-940
-939
-939
-938
-938
-940
-943
-946
-947
-949
-949
-947
-944
-942
-941
-943
-946
-948
-948
-949
-948
-945
-943
-941
-942
-944
-946
-947
-948
-949
-948
-945
-942
-941
-940
-943
-945
-947
-948
-948
-946
-944
-943
-941
-941
-942
-946
-948
-948
-948
-948
-945
-943
-941
-941
-942
-945
-948
-949
-949
-948
-944
-942
-943
-944
-945
-947
-950
-951
-950
-949
-947
-945
-945
-946
-948
-950
-952
-954
-954
-951
-949
-948
-947
-948
-950
-952
-954
-956
-956
-954
-951
-949
-948
-950
-952
-954
-956
-956
-956
-954
-952
-951
-949
-951
-953
-955
-956
-956
-956
-955
-952
-950
-950
-951
-954
-956
-958
-959
-957
-954
-952
-951
-952
-954
-954
-955
-957
-958
-958
-956
-954
-952
-952
-954
-956
-958
-960
-960
-958
-956
-954
-952
-952
-954
-956
-958
-960
-961
-960
-958
-955
-953
-953
-955
-957
-959
-959
-961
-961
-957
-954
-953
-954
-955
-957
-960
-962
-961
-960
-958
-956
-955
-954
-956
-958
-960
-962
-962
-959
-957
-955
-955
-955
-955
-957
-957
-958
-957
-952
-948
-945
-944
-944
-945
-947
-949
-951
-952
-951
-948
-944
-941
-939
-940
-942
-942
-944
-944
-945
-944
-942
-942
-943
-946
-949
-951
-953
-954
-954
-952
-950
-948
-951
-954
-956
-959
-961
-962
-961
-958
-955
-955
-957
-960
-962
-964
-963
-963
-962
-959
-957
-957
-959
-962
-964
-965
-965
-964
-961
-957
-956
-957
-958
-961
-963
-964
-964
-963
-958
-954
-951
-952
-954
-956
-961
-960
-945
-919
-886
-850
-814
-780
-755
-736
-736
-787
-840
-878
-908
-922
-922
-925
-934
-948
-968
-981
-992
-1002
-1008
-1011
-1012
-1013
-1013
-1014
-1015
-1013
-1006
-995
-984
-975
-968
-963
-961
-961
-961
-959
-958
-955
-952
-948
-946
-947
-948
-951
-953
-954
-953
-950
-945
-942
-942
-942
-943
-944
-946
-947
-947
-945
-943
-941
-938
-938
-940
-942
-944
-945
-943
-940
-936
-935
-934
-934
-938
-940
-940
-941
-940
-937
-934
-931
-930
-931
-932
-933
-933
-934
-933
-930
-927
-924
-923
-922
-924
-925
-925
-923
-920
-917
-914
-911
-909
-909
-910
-910
-910
-909
-906
-903
-898
-895
-894
-894
-895
-897
-898
-897
-894
-891
-888
-885
-885
-886
-889
-891
-892
-893
-892
-891
-890
-890
-892
-894
-899
-904
-907
-908
-910
-911
-909
-910
-914
-918
-922
-927
-932
-934
-934
-934
-933
-933
-936
-939
-945
-949
-951
-952
-951
-949
-947
-947
-949
-951
-954
-957
-958
-958
-957
-955
-952
-952
-952
-954
-957
-958
-958
-958
-957
-955
-952
-950
-951
-954
-955
-956
-959
-958
-955
-952
-950
-949
-950
-952
-955
-955
-955
-955
-954
-952
-949
-948
-949
-953
-955
-955
-956
-957
-954
-952
-950
-949
-950
-953
-955
-958
-959
-957
-954
-950
-950
-951
-953
-955
-957
-958
-958
-959
-956
-953
-952
-952
-953
-956
-959
-961
-961
-961
-959
-957
-955
-954
-955
-958
-960
-963
-964
-962
-960
-957
-955
-955
-957
-959
-962
-964
-964
-963
-961
-958
-957
-957
-959
-960
-963
-964
-964
-964
-962
-959
-957
-958
-960
-962
-963
-966
-967
-965
-962
-959
-958
-958
-960
-963
-965
-967
-967
-965
-962
-959
-959
-960
-963
-966
-967
-967
-967
-966
-964
-960
-960
-961
-962
-965
-968
-968
-966
-965
-963
-962
-960
-961
-963
-966
-968
-969
-969
-968
-965
-962
-961
-961
-964
-968
-969
-969
-969
-968
-965
-963
-962
-963
-965
-966
-966
-965
-965
-961
-956
-952
-951
-952
-954
-957
-958
-959
-959
-958
-954
-951
-948
-948
-948
-951
-953
-952
-952
-950
-949
-949
-949
-950
-952
-956
-958
-960
-961
-958
-958
-958
-958
-958
-960
-963
-965
-967
-968
-968
-965
-963
-963
-965
-968
-970
-972
-972
-971
-969
-966
-965
-965
-967
-969
-972
-972
-972
-971
-968
-965
-964
-964
-967
-969
-971
-971
-971
-969
-966
-963
-960
-958
-960
-963
-965
-969
-965
-948
-921
-889
-858
-826
-796
-773
-753
-750
-794
-841
-876
-908
-925
-928
-933
-943
-955
-973
-985
-995
-1005
-1009
-1013
-1018
-1021
-1022
-1022
-1021
-1018
-1008
-996
-985
-978
-973
-970
-969
-968
-967
-964
-961
-957
-954
-953
-954
-955
-956
-956
-957
-956
-954
-950
-947
-946
-947
-948
-951
-952
-952
-951
-948
-945
-943
-942
-942
-944
-947
-948
-948
-947
-944
-940
-937
-937
-938
-941
-942
-943
-943
-941
-939
-935
-933
-932
-934
-935
-936
-936
-935
-934
-931
-927
-925
-924
-924
-925
-927
-927
-926
-923
-918
-914
-911
-909
-909
-910
-911
-911
-909
-906
-901
-897
-895
-894
-894
-894
-896
-897
-897
-895
-891
-887
-884
-885
-886
-888
-890
-891
-891
-890
-888
-886
-886
-888
-892
-896
-901
-905
-907
-907
-905
-905
-907
-910
-915
-920
-923
-927
-930
-931
-930
-929
-930
-933
-937
-941
-945
-947
-948
-947
-945
-944
-944
-944
-948
-952
-954
-956
-956
-954
-952
-950
-950
-950
-954
-956
-956
-956
-956
-955
-953
-949
-949
-950
-951
-954
-956
-956
-955
-953
-951
-948
-947
-948
-951
-953
-955
-955
-954
-952
-949
-947
-947
-948
-951
-954
-955
-955
-954
-952
-949
-948
-948
-950
-952
-954
-956
-957
-955
-953
-950
-950
-951
-952
-954
-957
-958
-958
-957
-956
-952
-951
-951
-953
-955
-959
-962
-962
-960
-957
-954
-953
-953
-955
-958
-960
-961
-962
-961
-959
-956
-955
-956
-958
-961
-963
-963
-963
-962
-959
-956
-955
-956
-958
-961
-962
-964
-964
-962
-959
-957
-955
-956
-959
-962
-964
-964
-964
-962
-960
-958
-957
-957
-960
-962
-964
-966
-965
-962
-960
-957
-957
-959
-960
-963
-966
-967
-968
-965
-961
-959
-957
-958
-960
-963
-965
-967
-966
-964
-961
-959
-959
-960
-961
-964
-966
-966
-967
-964
-961
-959
-959
-959
-961
-964
-966
-966
-965
-963
-960
-958
-959
-960
-963
-964
-966
-966
-966
-963
-961
-960
-959
-959
-960
-961
-960
-958
-955
-950
-947
-945
-945
-948
-950
-952
-956
-956
-955
-949
-943
-941
-940
-941
-943
-945
-948
-951
-951
-948
-945
-943
-945
-947
-950
-954
-957
-958
-958
-956
-952
-951
-953
-956
-958
-962
-964
-964
-963
-962
-959
-958
-959
-962
-964
-965
-967
-967
-964
-962
-960
-959
-960
-962
-964
-966
-967
-966
-963
-961
-959
-958
-958
-961
-964
-966
-966
-964
-960
-956
-953
-952
-953
-958
-960
-950
-929
-898
-861
-823
-785
-750
-724
-707
-738
-798
-852
-894
-921
-925
-926
-931
-945
-966
-986
-1000
-1014
-1021
-1021
-1018
-1017
-1014
-1013
-1013
-1011
-1003
-994
-985
-975
-966
-959
-955
-954
-954
-955
-955
-955
-953
-950
-946
-943
-943
-944
-945
-947
-948
-947
-946
-942
-938
-936
-937
-938
-939
-942
-943
-942
-941
-937
-935
-933
-932
-933
-936
-938
-938
-938
-936
-933
-929
-928
-927
-929
-931
-932
-933
-933
-931
-927
-924
-922
-922
-923
-925
-927
-926
-924
-922
-918
-914
-911
-911
-912
-912
-912
-911
-910
-906
-901
-897
-895
-893
-893
-893
-894
-893
-890
-887
-882
-878
-876
-877
-877
-878
-878
-879
-876
-873
-869
-866
-865
-866
-869
-872
-873
-874
-875
-874
-872
-872
-874
-877
-882
-886
-890
-894
-896
-898
-898
-898
-900
-904
-910
-915
-918
-921
-923
-922
-922
-923
-925
-927
-931
-935
-938
-940
-941
-939
-938
-937
-937
-939
-942
-945
-947
-948
-948
-945
-942
-940
-940
-942
-945
-947
-948
-948
-947
-944
-941
-939
-938
-940
-942
-944
-946
-947
-946
-942
-939
-938
-938
-939
-943
-945
-945
-945
-945
-942
-939
-937
-938
-940
-942
-944
-946
-947
-945
-942
-940
-938
-939
-941
-943
-946
-947
-947
-945
-943
-941
-941
-941
-942
-945
-948
-950
-950
-947
-945
-942
-941
-942
-944
-947
-950
-951
-951
-950
-946
-943
-943
-945
-947
-950
-951
-953
-952
-950
-947
-946
-945
-946
-949
-951
-952
-954
-953
-951
-949
-946
-946
-948
-950
-952
-954
-954
-954
-952
-950
-946
-946
-947
-950
-952
-952
-954
-954
-951
-949
-947
-947
-949
-952
-954
-954
-956
-955
-952
-949
-947
-947
-948
-951
-953
-955
-955
-954
-952
-949
-947
-948
-949
-952
-954
-955
-956
-955
-952
-949
-947
-947
-949
-952
-954
-955
-956
-954
-952
-950
-948
-948
-950
-952
-954
-955
-956
-956
-952
-949
-947
-948
-950
-952
-954
-956
-956
-954
-952
-948
-948
-948
-950
-952
-954
-956
-956
-955
-951
-948
-946
-947
-948
-949
-950
-948
-946
-941
-938
-935
-934
-935
-938
-941
-945
-946
-944
-939
-935
-930
-930
-929
-930
-932
-936
-939
-941
-939
-936
-934
-933
-935
-939
-944
-947
-949
-949
-946
-943
-943
-943
-943
-947
-952
-955
-956
-955
-953
-950
-948
-949
-950
-952
-955
-957
-956
-956
-954
-951
-949
-949
-951
-953
-955
-956
-957
-956
-953
-950
-948
-947
-949
-952
-954
-955
-954
-951
-946
-944
-943
-943
-946
-949
-939
-918
-887
-851
-813
-774
-738
-711
-694
-728
-790
-845
-887
-913
-916
-917
-921
-932
-954
-973
-987
-1002
-1010
-1011
-1009
-1006
-1003
-1002
-1002
-1000
-994
-985
-976
-967
-958
-949
-944
-943
-944
-944
-945
-945
-944
-941
-938
-935
-932
-932
-934
-936
-938
-938
-937
-935
-931
-929
-926
-927
-929
-931
-932
-933
-932
-930
-928
-923
-921
-922
-925
-927
-929
-929
-928
-925
-923
-921
-919
-918
-919
-922
-924
-924
-922
-919
-916
-913
-913
-913
-915
-916
-917
-916
-915
-911
-907
-904
-901
-901
-902
-904
-904
-903
-900
-895
-891
-888
-887
-886
-886
-887
-886
-884
-882
-878
-874
-870
-869
-869
-870
-872
-872
-872
-870
-867
-863
-859
-859
-861
-863
-865
-868
-869
-869
-868
-867
-867
-868
-873
-877
-882
-887
-890
-891
-892
-892
-893
-896
-901
-907
-911
-914
-917
-919
-917
-917
-917
-920
-924
-929
-933
-934
-935
-935
-933
-931
-931
-933
-936
-939
-940
-943
-942
-940
-937
-935
-935
-935
-937
-941
-942
-942
-942
-940
-936
-934
-933
-934
-936
-939
-940
-940
-939
-937
-935
-934
-933
-934
-935
-938
-939
-939
-938
-935
-935
-934
-932
-933
-934
-937
-939
-939
-939
-938
-936
-933
-932
-933
-936
-938
-941
-941
-940
-938
-936
-934
-934
-935
-937
-939
-941
-942
-943
-941
-940
-938
-937
-937
-939
-941
-943
-944
-944
-942
-939
-937
-937
-939
-941
-943
-945
-945
-944
-943
-940
-937
-939
-941
-943
-945
-947
-947
-945
-943
-942
-939
-938
-940
-943
-946
-946
-947
-946
-944
-941
-939
-939
-941
-943
-945
-947
-947
-946
-944
-942
-941
-940
-941
-944
-947
-949
-949
-947
-945
-942
-940
-941
-943
-946
-948
-948
-948
-947
-944
-941
-940
-940
-942
-946
-949
-949
-949
-947
-944
-942
-941
-941
-944
-945
-948
-949
-948
-946
-944
-942
-941
-942
-945
-947
-949
-949
-949
-947
-945
-943
-941
-942
-944
-947
-949
-950
-950
-947
-945
-944
-942
-942
-944
-947
-948
-950
-949
-947
-946
-944
-943
-943
-945
-946
-945
-945
-941
-937
-933
-930
-930
-931
-934
-937
-940
-940
-939
-936
-932
-927
-925
-926
-928
-929
-930
-932
-934
-933
-931
-929
-929
-931
-934
-937
-940
-942
-942
-941
-938
-936
-936
-938
-941
-944
-948
-949
-948
-947
-945
-945
-945
-945
-947
-948
-950
-951
-950
-948
-944
-943
-943
-944
-948
-950
-951
-951
-949
-946
-944
-943
-943
-946
-949
-951
-951
-952
-950
-945
-941
-938
-939
-941
-945
-949
-942
-924
-895
-862
-827
-791
-762
-740
-721
-735
-788
-835
-871
-900
-909
-909
-912
-924
-938
-957
-970
-981
-990
-993
-994
-997
-1001
-1001
-1001
-1002
-999
-990
-977
-965
-958
-953
-949
-947
-946
-945
-944
-943
-941
-938
-936
-934
-934
-935
-937
-937
-938
-937
-935
-932
-930
-929
-930
-930
-932
-933
-934
-932
-931
-927
-926
-925
-926
-927
-930
-930
-928
-927
-926
-923
-921
-921
-921
-923
-924
-926
-925
-923
-921
-920
-918
-917
-918
-919
-920
-920
-919
-918
-916
-912
-910
-908
-908
-910
-910
-909
-908
-907
-903
-899
-896
-894
-894
-895
-894
-894
-893
-890
-886
-883
-880
-879
-879
-880
-881
-880
-878
-877
-874
-870
-869
-869
-871
-873
-874
-876
-876
-875
-873
-872
-873
-875
-879
-883
-887
-890
-891
-891
-893
-894
-896
-899
-903
-907
-911
-914
-917
-917
-917
-918
-919
-920
-922
-926
-929
-932
-933
-933
-932
-931
-931
-932
-935
-937
-938
-940
-941
-939
-936
-934
-932
-934
-937
-940
-942
-942
-941
-938
-935
-933
-932
-934
-936
-939
-940
-940
-940
-937
-934
-932
-933
-933
-937
-939
-940
-941
-941
-938
-934
-932
-932
-934
-936
-939
-941
-941
-939
-936
-935
-933
-934
-936
-939
-940
-941
-942
-940
-938
-935
-933
-934
-937
-939
-941
-943
-944
-942
-939
-937
-936
-936
-938
-941
-943
-944
-944
-943
-940
-936
-936
-938
-941
-944
-947
-947
-946
-944
-942
-940
-939
-938
-940
-944
-946
-947
-947
-945
-943
-941
-940
-940
-942
-944
-946
-946
-946
-945
-943
-941
-940
-940
-942
-945
-947
-948
-948
-946
-943
-941
-941
-942
-943
-947
-948
-949
-948
-946
-943
-940
-940
-943
-945
-948
-949
-950
-949
-947
-943
-941
-942
-942
-944
-948
-949
-949
-950
-947
-943
-942
-941
-944
-946
-948
-950
-950
-948
-946
-943
-942
-941
-943
-945
-948
-949
-950
-948
-945
-943
-941
-940
-943
-946
-948
-949
-948
-948
-946
-943
-941
-942
-943
-946
-948
-948
-948
-947
-945
-943
-942
-942
-943
-945
-947
-948
-948
-948
-946
-945
-942
-942
-943
-946
-947
-948
-947
-944
-942
-940
-937
-933
-932
-934
-934
-935
-936
-935
-934
-933
-932
-933
-933
-933
-932
-932
-932
-930
-927
-926
-927
-929
-931
-932
-933
-936
-936
-935
-935
-935
-935
-936
-939
-941
-941
-942
-943
-942
-942
-943
-943
-943
-944
-946
-948
-948
-948
-947
-945
-943
-942
-943
-945
-948
-949
-949
-950
-948
-946
-944
-943
-944
-945
-947
-948
-950
-949
-947
-945
-943
-941
-942
-943
-944
-945
-945
-943
-944
-939
-924
-901
-872
-841
-810
-778
-749
-723
-708
-743
-797
-841
-881
-908
-914
-917
-924
-933
-948
-961
-970
-982
-992
-998
-1003
-1007
-1006
-1003
-998
-992
-983
-974
-966
-962
-959
-955
-952
-947
-942
-938
-934
-934
-935
-937
-939
-940
-938
-936
-933
-931
-928
-928
-929
-932
-933
-933
-933
-930
-928
-924
-922
-923
-925
-926
-926
-929
-928
-926
-923
-920
-919
-919
-920
-923
-925
-925
-925
-923
-918
-915
-915
-915
-916
-918
-920
-920
-919
-916
-912
-909
-907
-908
-908
-909
-911
-911
-908
-905
-901
-897
-896
-894
-895
-895
-896
-895
-892
-889
-883
-878
-877
-875
-876
-878
-879
-877
-875
-871
-867
-864
-863
-863
-865
-866
-867
-867
-866
-863
-860
-858
-859
-861
-865
-867
-870
-872
-872
-873
-873
-873
-876
-880
-884
-889
-893
-897
-899
-900
-900
-900
-904
-907
-910
-914
-919
-920
-921
-921
-920
-921
-922
-925
-928
-930
-932
-933
-933
-932
-930
-928
-930
-931
-932
-934
-936
-936
-935
-933
-931
-930
-930
-931
-933
-935
-935
-936
-934
-932
-931
-930
-929
-931
-933
-934
-935
-935
-934
-932
-930
-928
-929
-930
-932
-935
-937
-936
-934
-932
-931
-930
-930
-931
-933
-935
-936
-936
-935
-932
-932
-931
-932
-933
-935
-937
-938
-938
-937
-935
-934
-932
-934
-937
-938
-939
-940
-939
-938
-936
-935
-934
-936
-938
-940
-941
-941
-941
-940
-939
-937
-936
-937
-939
-941
-942
-943
-942
-941
-939
-937
-937
-938
-940
-942
-943
-943
-942
-942
-940
-938
-937
-938
-940
-942
-943
-944
-943
-942
-939
-938
-938
-939
-940
-942
-944
-944
-943
-942
-939
-938
-938
-939
-941
-943
-944
-945
-944
-942
-940
-938
-938
-939
-941
-943
-944
-945
-944
-942
-940
-939
-938
-940
-942
-944
-945
-945
-944
-942
-940
-939
-939
-941
-943
-944
-945
-946
-944
-942
-940
-940
-940
-940
-942
-944
-945
-945
-944
-941
-940
-938
-939
-940
-942
-944
-945
-945
-944
-942
-940
-939
-939
-940
-941
-942
-942
-940
-938
-933
-927
-925
-925
-926
-927
-930
-932
-933
-933
-931
-928
-926
-924
-923
-925
-927
-927
-927
-926
-924
-925
-924
-925
-927
-930
-933
-934
-935
-934
-933
-933
-932
-932
-934
-937
-940
-939
-940
-942
-940
-938
-937
-939
-940
-942
-944
-945
-945
-942
-940
-938
-937
-939
-941
-944
-945
-944
-944
-941
-938
-936
-936
-938
-941
-943
-945
-945
-943
-939
-936
-934
-933
-933
-936
-938
-940
-943
-934
-912
-883
-846
-811
-777
-744
-716
-693
-698
-750
-805
-852
-887
-900
-904
-911
-922
-939
-957
-970
-981
-989
-992
-994
-997
-998
-1000
-998
-994
-986
-974
-961
-952
-947
-944
-942
-941
-939
-938
-934
-930
-927
-926
-926
-927
-927
-929
-929
-929
-926
-923
-920
-919
-920
-922
-923
-925
-925
-923
-921
-917
-914
-914
-915
-917
-919
-920
-919
-919
-916
-913
-910
-909
-910
-912
-914
-915
-915
-914
-911
-908
-906
-905
-905
-907
-909
-910
-909
-907
-904
-901
-897
-896
-896
-897
-898
-898
-897
-896
-892
-887
-884
-882
-881
-880
-881
-881
-879
-876
-872
-868
-865
-864
-863
-864
-865
-864
-862
-860
-857
-853
-850
-850
-850
-851
-852
-853
-853
-852
-851
-849
-849
-850
-853
-857
-860
-865
-867
-869
-869
-870
-871
-874
-878
-884
-889
-893
-895
-897
-898
-899
-901
-903
-906
-910
-913
-917
-919
-919
-918
-917
-918
-919
-922
-926
-928
-928
-928
-928
-926
-924
-924
-924
-926
-928
-929
-929
-930
-928
-926
-925
-923
-924
-925
-927
-928
-929
-929
-928
-927
-924
-922
-923
-925
-926
-928
-928
-928
-928
-926
-924
-922
-923
-925
-926
-928
-929
-930
-928
-924
-922
-923
-923
-925
-927
-929
-929
-929
-927
-925
-923
-923
-923
-925
-928
-930
-930
-930
-928
-927
-924
-924
-926
-928
-930
-932
-932
-932
-930
-928
-927
-927
-927
-929
-931
-933
-933
-932
-931
-929
-928
-928
-929
-932
-933
-934
-934
-934
-932
-930
-928
-930
-931
-934
-935
-935
-935
-934
-932
-930
-929
-931
-932
-934
-936
-936
-937
-936
-933
-930
-929
-928
-931
-934
-936
-937
-936
-935
-934
-932
-930
-930
-931
-934
-937
-938
-938
-936
-934
-932
-931
-931
-932
-935
-938
-938
-937
-936
-934
-933
-932
-931
-934
-935
-936
-937
-937
-936
-934
-932
-931
-932
-934
-935
-936
-937
-937
-936
-934
-932
-932
-932
-934
-936
-938
-938
-938
-936
-933
-931
-931
-931
-933
-936
-938
-939
-938
-936
-935
-932
-931
-930
-930
-930
-927
-926
-925
-923
-920
-919
-920
-922
-925
-928
-929
-929
-926
-922
-918
-917
-916
-916
-919
-922
-925
-927
-926
-923
-923
-923
-924
-925
-927
-930
-931
-933
-931
-929
-928
-928
-929
-931
-934
-936
-938
-939
-938
-936
-933
-932
-932
-934
-936
-938
-938
-939
-938
-936
-934
-932
-933
-935
-936
-937
-939
-939
-938
-935
-934
-933
-933
-935
-937
-938
-938
-935
-933
-932
-930
-927
-930
-931
-919
-897
-869
-838
-801
-765
-737
-713
-705
-747
-802
-844
-880
-900
-900
-900
-905
-914
-929
-945
-959
-972
-981
-986
-989
-989
-988
-985
-983
-984
-979
-971
-962
-955
-948
-940
-935
-931
-930
-930
-930
-930
-930
-930
-927
-924
-922
-922
-922
-921
-922
-923
-924
-922
-921
-919
-916
-915
-916
-916
-918
-919
-919
-917
-915
-914
-912
-912
-913
-913
-914
-916
-916
-915
-913
-911
-908
-907
-908
-909
-911
-911
-912
-910
-908
-905
-904
-903
-903
-903
-903
-903
-903
-901
-898
-895
-893
-892
-892
-893
-894
-894
-891
-887
-884
-881
-877
-876
-876
-876
-876
-875
-874
-871
-868
-864
-862
-860
-861
-862
-863
-863
-863
-860
-858
-855
-853
-854
-856
-858
-861
-863
-864
-863
-862
-861
-861
-865
-868
-872
-876
-880
-883
-884
-885
-886
-888
-891
-894
-898
-902
-905
-907
-908
-908
-908
-909
-911
-913
-916
-919
-922
-922
-920
-919
-919
-919
-920
-923
-925
-926
-927
-926
-925
-924
-921
-920
-921
-923
-925
-926
-926
-926
-923
-921
-921
-921
-920
-922
-924
-926
-926
-925
-924
-922
-920
-919
-920
-921
-923
-924
-925
-924
-922
-920
-919
-919
-920
-923
-924
-926
-925
-924
-922
-921
-920
-920
-921
-923
-925
-925
-924
-924
-923
-922
-921
-920
-922
-923
-925
-926
-927
-926
-924
-923
-921
-922
-923
-925
-927
-927
-929
-928
-926
-924
-923
-923
-924
-926
-928
-930
-931
-930
-928
-926
-924
-925
-926
-928
-929
-929
-931
-930
-928
-925
-925
-925
-926
-928
-930
-930
-930
-930
-927
-925
-926
-926
-927
-929
-930
-931
-931
-929
-927
-926
-926
-927
-928
-930
-931
-932
-932
-931
-930
-927
-926
-927
-929
-931
-932
-933
-933
-931
-929
-927
-926
-926
-928
-930
-931
-933
-933
-932
-930
-928
-927
-928
-929
-931
-932
-933
-933
-930
-928
-926
-926
-927
-930
-931
-932
-932
-932
-930
-927
-925
-924
-924
-925
-924
-923
-922
-920
-917
-915
-914
-915
-917
-921
-923
-922
-920
-918
-914
-911
-909
-908
-910
-912
-915
-919
-920
-920
-917
-916
-916
-916
-920
-922
-924
-926
-926
-924
-923
-921
-921
-922
-926
-929
-932
-933
-933
-932
-930
-927
-925
-926
-928
-929
-931
-932
-933
-932
-930
-927
-927
-927
-929
-930
-932
-932
-932
-932
-929
-927
-926
-926
-927
-930
-931
-931
-928
-926
-923
-920
-922
-924
-918
-902
-878
-847
-814
-780
-746
-719
-696
-708
-762
-811
-851
-883
-893
-893
-895
-902
-914
-932
-946
-959
-972
-979
-982
-984
-983
-980
-978
-975
-973
-967
-959
-952
-945
-936
-930
-925
-921
-921
-921
-921
-921
-921
-920
-918
-915
-913
-912
-912
-914
-914
-915
-916
-914
-912
-910
-907
-907
-907
-909
-910
-911
-911
-910
-908
-905
-903
-902
-903
-905
-906
-906
-905
-905
-903
-900
-899
-898
-899
-901
-902
-902
-902
-899
-896
-893
-892
-892
-893
-893
-893
-893
-893
-891
-888
-884
-882
-881
-881
-881
-881
-880
-878
-875
-872
-869
-865
-863
-864
-864
-864
-864
-862
-859
-856
-852
-850
-849
-850
-850
-851
-851
-851
-848
-846
-844
-843
-845
-846
-847
-849
-851
-852
-852
-852
-852
-853
-856
-861
-866
-869
-873
-875
-876
-878
-878
-879
-883
-886
-890
-894
-898
-899
-899
-900
-900
-901
-903
-906
-910
-913
-913
-914
-913
-911
-909
-910
-912
-914
-916
-918
-919
-919
-917
-914
-912
-912
-914
-915
-917
-919
-920
-918
-916
-914
-912
-912
-913
-914
-916
-918
-918
-918
-916
-913
-912
-912
-913
-915
-916
-917
-917
-917
-915
-914
-913
-913
-914
-915
-918
-919
-919
-917
-916
-913
-913
-914
-914
-916
-918
-920
-919
-918
-916
-915
-915
-915
-916
-918
-920
-922
-922
-921
-919
-917
-916
-917
-918
-921
-923
-924
-924
-922
-921
-920
-919
-919
-920
-922
-924
-926
-926
-923
-922
-921
-920
-921
-921
-923
-924
-926
-926
-925
-923
-921
-921
-921
-922
-924
-927
-927
-926
-925
-923
-922
-921
-921
-922
-925
-927
-928
-927
-925
-923
-920
-920
-922
-924
-926
-927
-928
-927
-925
-923
-921
-922
-923
-926
-927
-927
-928
-929
-927
-925
-923
-922
-923
-925
-926
-928
-929
-928
-926
-925
-923
-923
-924
-926
-927
-929
-930
-928
-927
-925
-923
-922
-924
-925
-924
-924
-922
-919
-916
-912
-909
-909
-911
-914
-917
-919
-919
-918
-914
-910
-906
-904
-906
-908
-909
-909
-911
-913
-912
-911
-909
-910
-912
-914
-918
-921
-922
-922
-920
-918
-916
-917
-919
-921
-925
-927
-929
-928
-926
-925
-924
-924
-926
-928
-929
-931
-931
-929
-928
-925
-924
-925
-926
-928
-931
-931
-931
-929
-928
-926
-925
-927
-928
-928
-930
-931
-930
-928
-924
-919
-918
-919
-921
-924
-924
-910
-886
-853
-816
-777
-739
-707
-681
-671
-712
-773
-826
-866
-886
-889
-891
-899
-915
-937
-955
-969
-980
-985
-985
-983
-981
-981
-981
-981
-976
-965
-955
-945
-936
-929
-925
-922
-921
-920
-922
-921
-918
-915
-913
-910
-909
-910
-912
-912
-913
-913
-912
-909
-906
-904
-903
-904
-905
-907
-908
-908
-906
-904
-901
-899
-899
-899
-901
-902
-903
-903
-901
-899
-896
-894
-895
-895
-896
-898
-898
-897
-897
-894
-890
-889
-888
-888
-889
-890
-890
-889
-887
-883
-880
-879
-878
-877
-877
-877
-876
-874
-871
-868
-864
-861
-858
-858
-858
-858
-857
-855
-851
-847
-844
-841
-840
-840
-840
-840
-840
-839
-836
-833
-831
-829
-828
-830
-832
-833
-835
-835
-835
-835
-835
-836
-839
-843
-848
-851
-854
-857
-859
-860
-862
-865
-868
-873
-877
-881
-885
-887
-889
-889
-889
-890
-892
-896
-901
-904
-905
-906
-906
-905
-905
-904
-906
-908
-910
-912
-914
-914
-912
-911
-910
-910
-911
-912
-913
-914
-914
-914
-912
-910
-909
-908
-909
-910
-912
-913
-914
-913
-911
-908
-908
-907
-908
-909
-911
-912
-913
-912
-910
-909
-907
-907
-909
-911
-913
-914
-914
-912
-911
-909
-907
-907
-909
-911
-913
-913
-913
-913
-912
-910
-908
-909
-911
-911
-913
-915
-915
-913
-913
-911
-910
-910
-912
-914
-916
-917
-918
-917
-915
-913
-912
-913
-915
-916
-917
-919
-920
-918
-915
-914
-914
-914
-915
-918
-920
-921
-920
-919
-917
-916
-915
-916
-918
-919
-920
-922
-921
-919
-916
-916
-915
-914
-915
-918
-919
-920
-921
-919
-917
-915
-916
-918
-919
-920
-922
-923
-923
-921
-919
-917
-917
-918
-919
-921
-922
-922
-922
-920
-918
-917
-917
-918
-919
-921
-922
-922
-922
-921
-919
-917
-918
-918
-920
-922
-923
-923
-922
-919
-916
-915
-915
-917
-920
-922
-921
-920
-917
-912
-907
-905
-904
-904
-907
-908
-909
-911
-912
-912
-909
-905
-904
-902
-902
-904
-903
-903
-902
-904
-903
-903
-903
-904
-907
-909
-910
-913
-915
-914
-913
-911
-911
-913
-915
-917
-919
-921
-921
-920
-918
-917
-917
-918
-921
-923
-924
-925
-924
-921
-920
-919
-920
-922
-924
-924
-924
-924
-923
-922
-920
-918
-918
-920
-922
-923
-923
-924
-923
-921
-918
-914
-912
-914
-916
-917
-921
-918
-902
-877
-844
-809
-773
-739
-710
-688
-680
-722
-780
-827
-862
-880
-882
-885
-896
-909
-929
-944
-956
-966
-973
-974
-975
-977
-977
-977
-975
-970
-959
-949
-938
-931
-926
-923
-922
-921
-919
-917
-914
-912
-909
-908
-907
-909
-910
-910
-909
-909
-907
-905
-902
-902
-903
-903
-905
-905
-904
-904
-902
-899
-897
-897
-898
-899
-900
-902
-901
-899
-898
-895
-893
-893
-894
-895
-896
-896
-896
-895
-893
-890
-887
-888
-889
-890
-891
-891
-891
-888
-885
-881
-880
-879
-879
-879
-879
-878
-878
-876
-872
-870
-868
-865
-865
-865
-864
-863
-861
-858
-855
-851
-848
-846
-845
-846
-847
-847
-845
-843
-840
-837
-834
-834
-835
-836
-836
-837
-837
-836
-835
-835
-836
-838
-842
-846
-850
-854
-856
-856
-856
-856
-859
-864
-869
-873
-877
-881
-884
-884
-885
-886
-887
-891
-896
-899
-900
-903
-904
-903
-901
-901
-902
-905
-908
-911
-913
-914
-914
-911
-910
-908
-907
-910
-913
-914
-915
-915
-914
-911
-908
-907
-907
-909
-911
-913
-914
-913
-913
-910
-908
-906
-906
-908
-910
-912
-913
-913
-911
-909
-906
-904
-905
-905
-908
-910
-912
-911
-910
-908
-906
-904
-904
-906
-908
-909
-911
-912
-911
-909
-907
-906
-906
-907
-910
-912
-913
-912
-911
-910
-907
-907
-908
-910
-912
-913
-915
-916
-913
-910
-909
-908
-909
-912
-914
-916
-917
-917
-915
-912
-910
-910
-911
-913
-914
-916
-918
-917
-915
-914
-911
-912
-912
-914
-916
-917
-918
-918
-916
-914
-912
-911
-912
-914
-916
-917
-920
-919
-916
-914
-913
-913
-913
-915
-917
-918
-918
-918
-916
-914
-913
-913
-914
-916
-919
-919
-920
-918
-917
-914
-914
-914
-915
-917
-919
-920
-920
-918
-916
-916
-914
-914
-914
-916
-919
-922
-922
-920
-918
-915
-914
-914
-917
-920
-920
-920
-921
-920
-917
-914
-911
-911
-910
-909
-909
-909
-908
-907
-907
-906
-904
-905
-907
-908
-907
-906
-904
-902
-902
-898
-895
-897
-900
-903
-905
-907
-907
-908
-907
-905
-906
-908
-910
-913
-914
-915
-915
-914
-913
-912
-912
-915
-917
-919
-920
-921
-922
-921
-919
-918
-916
-917
-919
-920
-921
-923
-923
-921
-920
-917
-916
-918
-920
-921
-922
-923
-922
-921
-919
-918
-916
-917
-918
-918
-918
-918
-917
-915
-914
-915
-915
-905
-887
-860
-831
-799
-765
-735
-712
-693
-718
-770
-815
-850
-876
-884
-885
-888
-895
-907
-923
-936
-949
-961
-968
-972
-976
-975
-971
-968
-966
-962
-955
-948
-941
-935
-929
-924
-918
-913
-911
-912
-912
-912
-913
-913
-913
-911
-908
-907
-905
-905
-907
-909
-909
-908
-907
-904
-902
-900
-900
-900
-901
-903
-904
-904
-903
-901
-898
-897
-896
-897
-897
-897
-898
-899
-898
-896
-893
-892
-890
-891
-893
-895
-895
-894
-892
-890
-888
-887
-886
-886
-887
-887
-887
-885
-883
-880
-878
-876
-875
-875
-875
-875
-875
-872
-870
-866
-862
-860
-860
-859
-857
-856
-856
-856
-854
-850
-847
-845
-845
-845
-844
-844
-845
-845
-843
-841
-840
-839
-840
-842
-845
-847
-850
-851
-851
-851
-853
-854
-857
-861
-865
-869
-872
-874
-875
-876
-877
-879
-882
-886
-890
-893
-896
-896
-897
-897
-897
-899
-901
-903
-906
-908
-909
-910
-909
-906
-906
-907
-908
-909
-911
-912
-913
-913
-912
-910
-908
-909
-910
-910
-912
-914
-914
-913
-911
-908
-907
-906
-908
-909
-911
-911
-912
-911
-909
-907
-906
-906
-907
-908
-910
-911
-911
-910
-909
-908
-907
-907
-907
-909
-911
-912
-912
-911
-911
-908
-907
-908
-908
-911
-912
-914
-914
-914
-912
-910
-909
-909
-911
-912
-915
-916
-916
-915
-913
-912
-911
-911
-913
-915
-916
-917
-918
-917
-915
-914
-912
-913
-914
-916
-918
-919
-918
-918
-916
-914
-914
-914
-916
-918
-919
-920
-920
-919
-917
-915
-915
-915
-916
-918
-920
-920
-920
-919
-918
-917
-916
-917
-918
-920
-921
-921
-921
-919
-918
-916
-916
-916
-918
-919
-921
-922
-921
-921
-919
-918
-917
-917
-918
-921
-923
-922
-922
-921
-918
-918
-917
-918
-920
-922
-923
-923
-922
-920
-919
-917
-918
-918
-920
-921
-923
-924
-922
-919
-917
-915
-914
-912
-911
-911
-911
-910
-909
-909
-907
-907
-909
-910
-909
-910
-908
-907
-904
-903
-900
-899
-900
-903
-906
-908
-909
-909
-911
-909
-908
-908
-909
-912
-915
-916
-917
-917
-916
-916
-916
-916
-917
-920
-921
-923
-924
-924
-923
-922
-920
-919
-919
-920
-922
-924
-925
-925
-924
-923
-921
-920
-920
-921
-924
-925
-925
-925
-925
-922
-920
-920
-920
-921
-921
-921
-921
-919
-918
-916
-917
-915
-903
-882
-855
-823
-789
-753
-718
-690
-672
-702
-762
-815
-857
-883
-889
-890
-895
-905
-922
-939
-953
-967
-977
-982
-984
-983
-979
-975
-972
-968
-959
-951
-945
-940
-934
-928
-923
-919
-915
-913
-913
-914
-914
-914
-913
-912
-910
-907
-906
-906
-906
-907
-909
-909
-910
-908
-905
-902
-900
-900
-901
-902
-903
-903
-903
-901
-900
-897
-895
-895
-896
-897
-898
-900
-898
-897
-895
-892
-890
-891
-891
-893
-894
-893
-892
-891
-889
-887
-884
-883
-883
-884
-884
-885
-883
-881
-878
-875
-872
-871
-871
-871
-871
-869
-867
-864
-859
-855
-852
-850
-851
-850
-849
-850
-848
-844
-840
-837
-835
-835
-835
-837
-838
-837
-835
-833
-831
-829
-829
-830
-832
-835
-839
-841
-843
-842
-842
-843
-846
-850
-855
-859
-863
-866
-869
-871
-872
-872
-875
-879
-884
-888
-891
-893
-895
-896
-896
-896
-898
-900
-903
-905
-907
-908
-909
-909
-908
-907
-908
-909
-911
-912
-914
-915
-914
-912
-910
-908
-908
-909
-911
-913
-914
-915
-914
-912
-909
-907
-908
-909
-911
-912
-913
-912
-912
-911
-908
-906
-907
-907
-909
-911
-913
-913
-911
-910
-907
-906
-906
-908
-910
-912
-913
-913
-912
-910
-908
-907
-907
-909
-911
-913
-913
-913
-913
-911
-910
-909
-910
-911
-912
-914
-916
-916
-915
-914
-912
-911
-912
-912
-916
-917
-919
-918
-917
-916
-914
-914
-914
-915
-917
-919
-919
-919
-919
-917
-916
-915
-915
-917
-918
-919
-920
-920
-919
-917
-916
-915
-916
-916
-918
-919
-920
-920
-919
-918
-916
-915
-915
-917
-919
-920
-921
-921
-919
-917
-916
-916
-916
-916
-919
-922
-922
-921
-920
-918
-916
-916
-917
-917
-919
-921
-921
-921
-919
-918
-917
-917
-917
-919
-920
-922
-923
-921
-919
-918
-917
-917
-917
-919
-920
-921
-921
-921
-920
-918
-916
-916
-916
-917
-917
-917
-915
-911
-908
-905
-903
-903
-904
-906
-909
-911
-911
-910
-907
-903
-900
-899
-899
-900
-900
-901
-904
-905
-905
-903
-902
-902
-904
-906
-908
-913
-915
-915
-913
-910
-909
-910
-912
-915
-918
-921
-921
-919
-919
-918
-917
-918
-919
-920
-921
-921
-922
-921
-920
-918
-917
-918
-919
-921
-922
-922
-921
-920
-920
-918
-916
-916
-918
-920
-921
-922
-921
-919
-915
-914
-912
-912
-912
-915
-918
-908
-886
-856
-821
-783
-744
-709
-682
-663
-683
-741
-799
-845
-874
-881
-883
-889
-900
-921
-940
-954
-966
-974
-977
-977
-975
-974
-974
-973
-970
-962
-951
-940
-931
-925
-919
-916
-915
-914
-913
-913
-911
-909
-908
-905
-904
-904
-905
-905
-906
-905
-904
-902
-900
-898
-898
-898
-899
-899
-900
-899
-899
-897
-896
-895
-894
-895
-895
-896
-897
-897
-896
-892
-891
-890
-889
-889
-890
-890
-891
-892
-889
-886
-884
-883
-883
-883
-884
-884
-884
-883
-881
-878
-875
-873
-872
-872
-872
-871
-871
-868
-865
-862
-859
-857
-855
-854
-854
-853
-851
-849
-846
-843
-839
-836
-835
-836
-837
-836
-836
-833
-830
-827
-824
-823
-823
-824
-826
-828
-829
-829
-828
-827
-827
-829
-832
-836
-841
-845
-848
-851
-853
-854
-855
-858
-862
-867
-872
-877
-879
-881
-881
-882
-883
-885
-888
-892
-896
-899
-901
-902
-899
-898
-898
-899
-901
-904
-906
-909
-911
-910
-908
-906
-905
-903
-905
-908
-910
-911
-911
-910
-908
-906
-903
-903
-905
-907
-909
-910
-910
-910
-908
-905
-904
-903
-905
-906
-908
-910
-911
-909
-906
-902
-901
-902
-903
-906
-908
-910
-910
-908
-906
-902
-902
-903
-904
-906
-909
-909
-909
-908
-906
-904
-903
-905
-907
-909
-911
-912
-912
-911
-908
-906
-905
-907
-908
-911
-913
-914
-913
-913
-911
-908
-907
-909
-911
-913
-914
-916
-916
-914
-912
-910
-908
-909
-911
-913
-915
-917
-916
-914
-912
-910
-909
-911
-913
-915
-917
-917
-917
-915
-913
-911
-911
-912
-914
-916
-917
-918
-917
-915
-913
-912
-911
-913
-915
-916
-917
-917
-918
-916
-914
-912
-911
-913
-915
-918
-919
-919
-918
-916
-914
-912
-912
-913
-915
-917
-918
-918
-919
-916
-913
-910
-911
-913
-917
-919
-920
-920
-919
-917
-914
-913
-912
-914
-916
-918
-920
-920
-919
-917
-914
-912
-913
-914
-917
-919
-920
-920
-919
-916
-913
-911
-910
-911
-910
-909
-909
-908
-906
-904
-901
-901
-903
-905
-907
-907
-906
-904
-901
-899
-896
-894
-894
-898
-901
-904
-907
-907
-905
-903
-901
-901
-903
-907
-910
-913
-913
-912
-913
-911
-909
-909
-911
-913
-917
-920
-921
-921
-918
-915
-914
-913
-914
-916
-919
-921
-922
-921
-919
-916
-914
-913
-914
-917
-919
-920
-920
-919
-918
-915
-914
-913
-914
-916
-917
-917
-916
-914
-912
-910
-908
-910
-908
-897
-876
-847
-816
-781
-745
-714
-689
-681
-728
-784
-826
-861
-880
-882
-883
-888
-896
-912
-928
-942
-955
-965
-969
-973
-973
-970
-966
-965
-963
-956
-949
-942
-936
-929
-921
-915
-911
-908
-907
-909
-910
-911
-911
-909
-905
-901
-900
-900
-900
-902
-903
-904
-903
-902
-899
-897
-895
-895
-894
-896
-898
-899
-899
-898
-894
-891
-891
-891
-891
-894
-896
-895
-895
-893
-890
-888
-886
-886
-887
-889
-890
-890
-890
-889
-887
-883
-880
-880
-882
-883
-885
-884
-881
-878
-875
-872
-871
-870
-870
-870
-870
-869
-867
-863
-859
-857
-854
-853
-853
-854
-853
-852
-849
-846
-843
-839
-837
-836
-837
-838
-839
-839
-839
-836
-833
-831
-830
-830
-832
-836
-838
-839
-840
-841
-839
-839
-841
-844
-849
-854
-858
-861
-864
-865
-865
-866
-867
-870
-873
-878
-883
-887
-888
-887
-887
-886
-888
-890
-894
-897
-900
-901
-901
-900
-899
-897
-897
-899
-901
-904
-906
-907
-906
-903
-900
-899
-899
-900
-902
-904
-905
-906
-904
-902
-900
-898
-897
-898
-900
-902
-904
-904
-903
-901
-898
-896
-896
-897
-898
-901
-903
-903
-902
-899
-895
-895
-896
-897
-899
-902
-903
-902
-901
-899
-896
-895
-895
-897
-900
-902
-903
-903
-901
-898
-897
-896
-897
-898
-900
-902
-904
-904
-902
-898
-897
-897
-898
-900
-901
-904
-905
-905
-904
-900
-898
-897
-898
-899
-901
-904
-907
-906
-903
-901
-899
-898
-899
-901
-903
-905
-905
-905
-904
-901
-899
-898
-899
-901
-904
-907
-907
-906
-904
-900
-898
-898
-899
-901
-903
-906
-907
-905
-905
-902
-900
-900
-900
-902
-904
-905
-907
-906
-904
-901
-900
-900
-901
-903
-905
-907
-908
-907
-905
-902
-900
-899
-901
-903
-906
-907
-907
-906
-904
-901
-899
-899
-901
-904
-906
-907
-908
-907
-905
-902
-900
-900
-901
-903
-906
-908
-907
-906
-903
-901
-899
-899
-900
-901
-903
-902
-899
-896
-893
-890
-888
-888
-890
-893
-897
-898
-898
-895
-890
-885
-882
-881
-882
-884
-887
-890
-891
-892
-891
-889
-887
-888
-890
-893
-897
-898
-898
-898
-896
-893
-893
-894
-898
-901
-904
-906
-906
-904
-902
-900
-900
-901
-901
-904
-906
-907
-907
-905
-902
-900
-899
-900
-903
-905
-906
-907
-907
-904
-902
-900
-898
-899
-902
-904
-906
-907
-906
-903
-898
-894
-893
-893
-896
-901
-901
-889
-867
-837
-803
-766
-733
-706
-686
-674
-711
-762
-802
-835
-855
-857
-860
-868
-880
-898
-916
-928
-938
-945
-947
-950
-951
-952
-953
-952
-953
-947
-936
-925
-915
-908
-903
-899
-899
-899
-899
-898
-895
-892
-889
-886
-886
-887
-889
-890
-890
-890
-889
-886
-882
-881
-880
-881
-884
-886
-887
-886
-884
-881
-878
-876
-876
-877
-878
-880
-881
-881
-879
-876
-873
-871
-871
-872
-874
-875
-877
-876
-873
-871
-868
-865
-865
-866
-868
-869
-869
-868
-865
-861
-858
-856
-856
-857
-857
-858
-857
-855
-852
-848
-845
-842
-840
-840
-841
-840
-840
-838
-834
-829
-825
-822
-822
-823
-825
-825
-825
-824
-821
-816
-813
-812
-811
-813
-817
-819
-819
-819
-818
-817
-816
-817
-819
-824
-829
-833
-836
-838
-839
-838
-839
-841
-844
-850
-855
-859
-861
-863
-864
-863
-864
-866
-868
-872
-876
-880
-881
-882
-881
-878
-877
-878
-880
-883
-886
-888
-889
-888
-887
-885
-882
-881
-883
-886
-889
-890
-890
-888
-886
-884
-882
-882
-883
-885
-888
-889
-889
-887
-885
-882
-880
-880
-881
-883
-886
-888
-889
-887
-884
-881
-880
-881
-882
-884
-886
-887
-887
-886
-883
-881
-880
-880
-882
-886
-888
-889
-889
-887
-885
-882
-881
-882
-884
-886
-890
-891
-891
-889
-886
-884
-883
-884
-886
-889
-890
-891
-891
-890
-887
-886
-885
-886
-888
-890
-893
-894
-893
-892
-889
-887
-886
-887
-890
-891
-893
-894
-895
-894
-890
-887
-886
-887
-889
-892
-894
-895
-894
-892
-889
-887
-887
-888
-891
-893
-895
-895
-894
-892
-890
-888
-887
-888
-891
-893
-894
-896
-895
-893
-891
-888
-888
-889
-892
-894
-895
-895
-894
-892
-890
-889
-888
-890
-892
-894
-896
-895
-895
-893
-890
-889
-890
-891
-893
-895
-897
-896
-895
-893
-891
-889
-889
-891
-892
-894
-896
-896
-895
-893
-891
-889
-889
-890
-892
-894
-894
-893
-891
-887
-882
-878
-877
-878
-880
-882
-883
-885
-885
-883
-880
-878
-875
-875
-875
-876
-877
-877
-877
-876
-875
-875
-876
-877
-880
-883
-884
-886
-886
-885
-884
-883
-883
-884
-887
-890
-893
-894
-893
-891
-889
-888
-890
-892
-894
-896
-898
-898
-896
-894
-891
-890
-891
-893
-896
-898
-899
-898
-896
-892
-890
-890
-891
-894
-896
-898
-899
-898
-896
-892
-889
-887
-887
-888
-890
-891
-891
-893
-889
-871
-847
-815
-781
-749
-714
-683
-658
-644
-681
-737
-787
-828
-851
-857
-862
-871
-884
-903
-919
-930
-940
-946
-950
-952
-954
-954
-953
-949
-942
-930
-917
-909
-905
-902
-899
-896
-894
-892
-889
-885
-881
-881
-882
-884
-885
-885
-885
-883
-881
-877
-875
-875
-876
-877
-879
-880
-880
-879
-874
-872
-870
-870
-871
-873
-875
-875
-875
-873
-870
-868
-866
-867
-868
-868
-869
-870
-870
-869
-865
-863
-861
-861
-861
-863
-863
-863
-863
-861
-859
-856
-853
-853
-852
-853
-853
-852
-851
-848
-844
-841
-837
-836
-836
-837
-837
-835
-833
-829
-825
-819
-817
-815
-816
-816
-815
-815
-814
-811
-807
-803
-801
-800
-802
-803
-805
-805
-803
-802
-800
-799
-798
-801
-805
-809
-812
-816
-818
-818
-820
-821
-823
-828
-833
-838
-843
-846
-849
-850
-850
-850
-853
-856
-860
-864
-869
-871
-871
-870
-871
-870
-871
-873
-877
-880
-881
-882
-883
-882
-879
-877
-877
-879
-881
-884
-886
-886
-885
-883
-881
-879
-878
-880
-882
-883
-886
-886
-885
-882
-879
-878
-877
-879
-881
-883
-885
-885
-883
-880
-877
-875
-877
-878
-881
-883
-883
-884
-881
-879
-878
-877
-877
-879
-882
-884
-884
-884
-884
-881
-879
-877
-878
-880
-883
-884
-886
-887
-886
-883
-881
-880
-881
-882
-885
-887
-888
-888
-887
-885
-882
-882
-883
-886
-888
-888
-889
-890
-888
-886
-883
-882
-883
-886
-888
-890
-891
-890
-889
-887
-885
-884
-886
-887
-889
-891
-892
-892
-891
-887
-885
-885
-885
-887
-889
-890
-893
-893
-890
-887
-885
-885
-887
-889
-890
-893
-892
-892
-891
-889
-886
-885
-887
-888
-890
-892
-893
-893
-890
-887
-884
-884
-886
-888
-891
-892
-894
-893
-890
-887
-886
-886
-887
-888
-891
-892
-893
-892
-890
-887
-885
-885
-886
-889
-891
-893
-895
-894
-892
-889
-887
-887
-888
-891
-893
-893
-894
-892
-890
-887
-887
-887
-887
-888
-889
-889
-886
-881
-877
-875
-873
-873
-875
-878
-881
-883
-883
-881
-876
-872
-869
-870
-871
-871
-873
-876
-878
-877
-875
-873
-873
-875
-877
-880
-883
-887
-888
-887
-884
-881
-880
-881
-884
-889
-891
-893
-894
-892
-890
-889
-887
-888
-890
-892
-894
-896
-895
-894
-892
-890
-890
-890
-892
-894
-895
-895
-895
-893
-890
-889
-888
-890
-891
-894
-896
-897
-895
-892
-889
-885
-883
-884
-887
-890
-892
-883
-862
-831
-793
-755
-719
-689
-666
-650
-676
-735
-785
-822
-848
-853
-852
-859
-871
-891
-909
-923
-934
-943
-945
-944
-945
-946
-946
-946
-945
-939
-929
-919
-909
-901
-894
-891
-891
-891
-891
-890
-888
-885
-881
-879
-879
-880
-883
-884
-884
-883
-882
-878
-875
-873
-874
-876
-877
-879
-879
-879
-877
-874
-871
-868
-868
-869
-871
-873
-875
-874
-871
-869
-866
-865
-865
-867
-869
-870
-871
-870
-868
-864
-862
-860
-861
-862
-863
-864
-864
-864
-861
-858
-855
-853
-852
-853
-853
-852
-851
-850
-848
-844
-841
-838
-837
-836
-835
-835
-835
-833
-830
-826
-823
-820
-819
-819
-818
-818
-819
-818
-815
-813
-810
-808
-808
-809
-810
-812
-812
-812
-812
-812
-812
-813
-815
-818
-823
-827
-830
-832
-834
-835
-837
-840
-843
-848
-852
-857
-859
-860
-862
-862
-863
-865
-868
-871
-875
-879
-881
-881
-881
-881
-881
-881
-882
-884
-888
-889
-889
-888
-886
-885
-885
-885
-887
-889
-890
-891
-891
-890
-889
-887
-886
-884
-884
-887
-889
-890
-889
-888
-887
-884
-883
-884
-885
-887
-889
-890
-890
-889
-886
-884
-883
-884
-884
-885
-887
-889
-889
-887
-885
-885
-884
-884
-886
-887
-887
-889
-889
-889
-887
-885
-884
-885
-886
-887
-889
-891
-891
-890
-889
-887
-886
-886
-888
-890
-892
-893
-893
-892
-891
-889
-887
-888
-889
-891
-894
-895
-895
-893
-891
-889
-889
-889
-891
-892
-894
-895
-896
-895
-894
-892
-891
-891
-893
-895
-896
-897
-896
-895
-893
-891
-891
-891
-893
-894
-896
-897
-898
-897
-895
-893
-892
-893
-895
-896
-898
-898
-898
-897
-896
-896
-895
-893
-893
-895
-898
-898
-898
-896
-895
-895
-894
-894
-895
-896
-898
-900
-900
-898
-895
-894
-895
-896
-897
-898
-900
-900
-899
-897
-896
-895
-895
-898
-898
-900
-901
-901
-900
-899
-896
-894
-895
-896
-898
-901
-901
-899
-897
-896
-892
-887
-886
-886
-887
-889
-890
-891
-890
-889
-887
-887
-886
-885
-884
-883
-884
-883
-882
-881
-880
-882
-883
-886
-887
-888
-889
-891
-892
-890
-890
-890
-891
-892
-894
-896
-898
-899
-900
-899
-898
-898
-898
-898
-901
-902
-903
-903
-902
-901
-899
-898
-898
-900
-902
-904
-904
-905
-904
-902
-901
-900
-899
-901
-903
-905
-906
-905
-904
-902
-898
-897
-897
-898
-899
-900
-901
-901
-902
-897
-881
-857
-828
-797
-765
-734
-708
-685
-678
-719
-766
-805
-841
-861
-865
-869
-877
-887
-903
-914
-924
-935
-944
-950
-956
-959
-961
-958
-955
-950
-942
-933
-925
-920
-916
-912
-909
-905
-901
-897
-895
-895
-894
-894
-894
-895
-896
-895
-893
-891
-890
-889
-889
-890
-891
-892
-891
-890
-889
-887
-885
-885
-886
-886
-887
-889
-889
-886
-884
-883
-881
-880
-881
-882
-884
-884
-883
-883
-881
-879
-876
-876
-877
-878
-879
-880
-879
-877
-874
-871
-869
-868
-870
-871
-872
-871
-870
-867
-864
-861
-858
-857
-857
-857
-857
-857
-855
-852
-849
-844
-841
-840
-840
-841
-841
-840
-839
-836
-833
-830
-828
-828
-829
-829
-830
-830
-830
-828
-827
-827
-827
-828
-831
-833
-836
-838
-840
-842
-842
-842
-845
-848
-852
-856
-861
-864
-867
-867
-868
-869
-871
-874
-877
-881
-885
-887
-889
-889
-888
-888
-889
-891
-894
-897
-898
-898
-899
-897
-897
-896
-896
-897
-899
-900
-902
-902
-901
-900
-898
-896
-896
-897
-899
-900
-901
-901
-901
-899
-897
-896
-896
-897
-899
-900
-901
-902
-900
-900
-897
-894
-895
-895
-896
-899
-902
-901
-899
-898
-897
-894
-893
-896
-898
-898
-895
-895
-894
-893
-892
-892
-893
-897
-902
-904
-904
-903
-902
-902
-901
-900
-900
-904
-909
-911
-912
-912
-910
-909
-906
-906
-905
-906
-908
-909
-910
-911
-910
-908
-905
-903
-904
-905
-907
-909
-910
-910
-909
-907
-905
-905
-905
-907
-909
-909
-911
-910
-909
-908
-906
-904
-906
-907
-910
-913
-913
-913
-910
-907
-905
-904
-905
-908
-911
-912
-913
-911
-909
-908
-907
-906
-906
-908
-910
-911
-913
-912
-910
-908
-904
-905
-906
-908
-911
-915
-915
-913
-911
-909
-908
-908
-909
-910
-912
-913
-914
-913
-911
-909
-908
-908
-908
-910
-911
-912
-912
-912
-911
-909
-907
-907
-908
-909
-911
-912
-913
-912
-908
-906
-904
-904
-903
-903
-902
-901
-900
-899
-897
-895
-894
-894
-895
-897
-899
-899
-897
-894
-891
-888
-887
-887
-888
-891
-895
-898
-898
-896
-895
-893
-893
-896
-900
-903
-906
-907
-906
-907
-906
-906
-906
-907
-909
-911
-914
-914
-914
-913
-911
-908
-908
-908
-910
-912
-915
-917
-917
-915
-913
-912
-910
-910
-912
-913
-915
-916
-915
-913
-911
-909
-909
-909
-911
-913
-913
-911
-908
-905
-903
-902
-903
-905
-895
-877
-848
-815
-780
-740
-705
-676
-655
-679
-739
-795
-840
-868
-876
-878
-882
-891
-909
-928
-944
-957
-967
-970
-970
-969
-965
-961
-959
-955
-949
-942
-934
-927
-920
-914
-909
-904
-901
-900
-901
-902
-902
-902
-901
-898
-894
-891
-889
-890
-893
-895
-897
-898
-897
-893
-890
-889
-888
-888
-889
-890
-890
-890
-889
-887
-886
-882
-882
-882
-884
-885
-885
-885
-884
-882
-879
-877
-876
-876
-877
-878
-877
-876
-875
-872
-870
-865
-861
-860
-862
-865
-869
-872
-873
-871
-868
-864
-861
-860
-860
-859
-858
-855
-853
-849
-845
-843
-841
-839
-839
-837
-836
-834
-832
-828
-825
-822
-821
-820
-820
-821
-821
-820
-818
-815
-814
-812
-812
-814
-815
-818
-819
-820
-821
-821
-822
-824
-827
-831
-836
-840
-843
-847
-849
-851
-852
-854
-858
-862
-867
-871
-874
-876
-876
-877
-877
-879
-881
-884
-887
-890
-892
-892
-892
-890
-890
-891
-891
-894
-895
-896
-898
-897
-895
-895
-893
-892
-892
-894
-896
-897
-897
-897
-896
-894
-893
-893
-894
-895
-896
-897
-898
-897
-895
-892
-892
-891
-892
-894
-896
-897
-897
-896
-895
-893
-892
-892
-893
-893
-895
-896
-896
-895
-893
-892
-891
-892
-893
-894
-896
-898
-897
-896
-895
-895
-893
-894
-896
-897
-898
-899
-899
-899
-897
-895
-895
-895
-897
-898
-899
-901
-901
-901
-898
-897
-897
-898
-899
-900
-900
-902
-903
-901
-899
-897
-897
-899
-900
-902
-903
-904
-903
-902
-900
-898
-897
-898
-900
-901
-903
-904
-904
-903
-902
-900
-899
-899
-901
-902
-902
-903
-903
-902
-901
-900
-899
-899
-901
-902
-904
-904
-903
-902
-901
-899
-899
-900
-902
-904
-905
-906
-906
-905
-903
-900
-899
-900
-902
-904
-905
-906
-906
-905
-903
-900
-900
-900
-903
-905
-907
-907
-906
-905
-903
-901
-901
-901
-903
-904
-906
-906
-905
-904
-902
-901
-901
-903
-904
-906
-908
-906
-904
-902
-900
-896
-892
-891
-892
-893
-894
-896
-896
-895
-894
-893
-892
-891
-890
-890
-890
-890
-888
-886
-884
-885
-888
-890
-891
-892
-894
-895
-895
-896
-897
-897
-899
-899
-899
-901
-902
-903
-903
-903
-902
-902
-903
-904
-906
-907
-908
-910
-910
-908
-906
-905
-905
-906
-908
-910
-911
-911
-910
-908
-905
-904
-905
-907
-908
-908
-909
-909
-909
-907
-905
-905
-905
-905
-905
-904
-905
-904
-904
-905
-896
-877
-850
-818
-787
-754
-721
-694
-672
-681
-736
-787
-827
-860
-872
-874
-878
-887
-900
-917
-929
-941
-953
-959
-963
-966
-967
-965
-962
-958
-951
-942
-934
-927
-923
-919
-915
-911
-906
-902
-900
-899
-899
-900
-900
-901
-901
-901
-898
-896
-895
-893
-893
-894
-895
-895
-895
-894
-893
-890
-888
-888
-889
-889
-891
-891
-891
-889
-886
-885
-885
-884
-884
-885
-886
-886
-888
-887
-885
-882
-880
-880
-881
-882
-884
-886
-886
-884
-881
-877
-874
-872
-873
-874
-875
-873
-872
-870
-868
-865
-863
-862
-861
-861
-861
-859
-857
-853
-850
-847
-844
-843
-843
-843
-843
-842
-840
-837
-833
-831
-829
-828
-828
-828
-829
-829
-828
-828
-826
-826
-826
-826
-827
-830
-832
-834
-837
-838
-839
-841
-843
-846
-851
-854
-859
-863
-865
-865
-864
-867
-870
-874
-878
-882
-884
-887
-890
-890
-890
-890
-891
-891
-894
-897
-899
-901
-901
-900
-900
-899
-898
-899
-901
-902
-904
-905
-905
-903
-900
-899
-900
-902
-903
-904
-905
-904
-904
-904
-901
-900
-899
-901
-902
-903
-904
-904
-904
-902
-901
-900
-900
-901
-902
-902
-903
-903
-903
-903
-901
-899
-899
-900
-901
-902
-903
-904
-903
-903
-902
-900
-900
-902
-903
-905
-905
-906
-905
-905
-904
-903
-901
-902
-905
-906
-907
-907
-906
-905
-904
-904
-904
-905
-907
-909
-910
-909
-908
-907
-906
-906
-906
-907
-909
-910
-911
-912
-911
-910
-907
-907
-908
-909
-910
-911
-913
-912
-912
-911
-908
-907
-908
-911
-912
-914
-915
-915
-913
-911
-910
-910
-910
-911
-912
-913
-914
-914
-912
-911
-911
-909
-911
-914
-915
-915
-916
-915
-914
-912
-912
-911
-911
-912
-915
-916
-917
-917
-916
-914
-912
-911
-913
-914
-916
-917
-917
-918
-916
-915
-914
-914
-914
-916
-917
-916
-915
-915
-910
-906
-903
-902
-903
-905
-908
-909
-908
-908
-909
-906
-902
-901
-900
-899
-900
-901
-900
-900
-900
-901
-902
-901
-901
-904
-906
-907
-909
-910
-910
-909
-908
-908
-910
-912
-914
-915
-916
-917
-917
-917
-916
-916
-916
-918
-921
-922
-921
-921
-919
-918
-917
-917
-918
-920
-921
-923
-922
-921
-921
-919
-917
-917
-919
-920
-921
-922
-922
-921
-919
-918
-916
-914
-913
-914
-915
-915
-916
-916
-905
-884
-857
-827
-796
-764
-734
-712
-695
-717
-767
-809
-844
-870
-878
-881
-888
-898
-911
-927
-938
-948
-958
-964
-969
-973
-975
-974
-972
-969
-962
-952
-943
-934
-931
-927
-923
-921
-918
-915
-912
-910
-909
-909
-909
-910
-910
-909
-908
-907
-905
-904
-902
-902
-904
-905
-905
-905
-903
-901
-899
-897
-897
-896
-898
-898
-899
-899
-898
-897
-895
-893
-892
-893
-894
-895
-895
-894
-893
-891
-889
-887
-887
-886
-888
-889
-889
-888
-887
-885
-882
-880
-879
-879
-879
-879
-879
-877
-875
-872
-868
-866
-865
-865
-864
-863
-862
-860
-858
-854
-851
-849
-847
-846
-845
-845
-845
-844
-840
-837
-835
-834
-833
-833
-834
-835
-836
-836
-834
-832
-832
-831
-833
-836
-839
-842
-845
-847
-848
-849
-851
-852
-856
-861
-865
-868
-872
-875
-875
-876
-878
-879
-882
-885
-888
-893
-895
-896
-895
-895
-895
-896
-898
-899
-901
-903
-905
-905
-904
-903
-902
-903
-903
-904
-905
-907
-908
-908
-907
-905
-903
-903
-903
-905
-905
-906
-906
-905
-904
-903
-902
-901
-901
-904
-905
-906
-906
-906
-905
-902
-901
-901
-902
-903
-904
-906
-905
-905
-904
-901
-900
-900
-902
-904
-905
-906
-907
-907
-905
-903
-903
-903
-903
-905
-906
-908
-909
-909
-907
-905
-904
-904
-906
-907
-908
-910
-911
-910
-909
-907
-906
-908
-908
-909
-912
-912
-913
-912
-911
-910
-908
-908
-910
-912
-913
-914
-914
-914
-913
-911
-910
-911
-911
-913
-914
-914
-915
-915
-913
-911
-911
-911
-912
-914
-916
-916
-916
-915
-913
-912
-911
-911
-913
-914
-916
-917
-915
-915
-913
-913
-912
-912
-913
-914
-916
-918
-918
-917
-914
-912
-912
-912
-913
-915
-916
-917
-917
-915
-914
-913
-913
-913
-914
-915
-916
-918
-918
-916
-914
-913
-913
-913
-914
-914
-915
-913
-909
-905
-901
-900
-900
-900
-902
-904
-905
-908
-909
-907
-905
-901
-898
-895
-895
-898
-898
-897
-898
-899
-899
-898
-899
-900
-902
-904
-906
-908
-909
-909
-908
-907
-907
-907
-909
-911
-913
-916
-917
-917
-915
-913
-913
-915
-917
-918
-919
-920
-919
-918
-915
-914
-916
-917
-918
-919
-919
-919
-918
-917
-915
-915
-915
-916
-917
-919
-919
-919
-919
-916
-913
-911
-910
-909
-910
-911
-913
-916
-907
-886
-857
-822
-787
-751
-717
-690
-667
-677
-732
-787
-832
-865
-876
-880
-887
-898
-916
-935
-949
-960
-969
-973
-973
-974
-973
-973
-973
-969
-960
-948
-938
-930
-924
-920
-917
-916
-915
-913
-910
-907
-906
-904
-904
-905
-906
-906
-905
-904
-903
-901
-899
-898
-898
-899
-900
-900
-901
-900
-898
-896
-893
-892
-893
-894
-895
-895
-896
-895
-893
-891
-890
-889
-889
-890
-890
-891
-890
-890
-888
-886
-884
-883
-883
-884
-884
-884
-885
-884
-879
-877
-875
-874
-873
-873
-873
-873
-872
-869
-865
-862
-859
-858
-857
-856
-855
-854
-853
-850
-846
-841
-838
-836
-836
-836
-836
-835
-834
-831
-828
-825
-822
-822
-822
-822
-822
-823
-824
-823
-822
-821
-821
-822
-826
-830
-834
-837
-840
-842
-844
-846
-848
-851
-856
-860
-865
-869
-871
-873
-875
-876
-877
-880
-883
-886
-889
-891
-894
-895
-894
-895
-895
-896
-898
-901
-903
-904
-904
-904
-903
-902
-901
-903
-904
-905
-906
-907
-906
-905
-904
-902
-902
-902
-904
-905
-906
-907
-906
-905
-903
-901
-900
-901
-903
-904
-905
-905
-905
-904
-903
-901
-902
-903
-904
-904
-905
-906
-906
-904
-903
-901
-901
-902
-903
-904
-905
-907
-907
-905
-903
-902
-902
-903
-904
-905
-906
-907
-907
-905
-904
-904
-904
-906
-907
-909
-910
-910
-910
-909
-907
-906
-907
-908
-909
-911
-912
-913
-912
-911
-909
-908
-908
-909
-910
-912
-913
-914
-914
-912
-911
-910
-909
-909
-912
-914
-915
-915
-915
-912
-909
-908
-910
-911
-912
-913
-914
-915
-914
-913
-912
-911
-911
-912
-914
-915
-916
-916
-916
-914
-913
-911
-911
-912
-914
-916
-916
-916
-915
-914
-913
-913
-914
-915
-916
-916
-917
-917
-915
-915
-914
-914
-914
-915
-916
-917
-918
-918
-917
-916
-914
-913
-913
-915
-916
-915
-914
-911
-906
-903
-901
-902
-902
-904
-906
-906
-908
-910
-908
-906
-904
-901
-898
-897
-899
-900
-900
-901
-901
-901
-901
-901
-902
-904
-905
-906
-909
-911
-912
-911
-910
-908
-910
-913
-914
-916
-918
-919
-919
-918
-916
-915
-917
-919
-921
-922
-922
-922
-921
-919
-919
-918
-919
-920
-922
-923
-923
-922
-921
-919
-919
-918
-919
-920
-921
-923
-924
-923
-921
-919
-917
-915
-914
-915
-916
-917
-919
-912
-894
-866
-834
-800
-765
-732
-706
-685
-692
-746
-799
-839
-870
-881
-883
-888
-899
-913
-931
-945
-956
-966
-971
-974
-977
-978
-978
-977
-975
-969
-958
-947
-938
-931
-927
-925
-922
-921
-919
-917
-914
-912
-911
-911
-911
-912
-913
-912
-911
-910
-908
-905
-904
-905
-906
-906
-907
-908
-907
-905
-903
-900
-898
-900
-902
-903
-904
-904
-902
-900
-899
-897
-895
-895
-897
-897
-898
-898
-898
-897
-894
-893
-893
-893
-894
-894
-894
-893
-892
-890
-888
-885
-884
-883
-883
-884
-884
-882
-881
-877
-874
-871
-870
-869
-868
-867
-867
-865
-863
-859
-856
-853
-851
-850
-850
-851
-850
-849
-847
-844
-841
-839
-837
-838
-838
-839
-838
-839
-839
-838
-837
-837
-839
-842
-845
-848
-851
-853
-856
-857
-858
-861
-864
-869
-873
-876
-878
-883
-885
-886
-887
-888
-892
-895
-898
-901
-904
-905
-906
-906
-905
-906
-907
-909
-913
-915
-916
-916
-916
-915
-913
-912
-912
-915
-917
-918
-919
-919
-918
-916
-914
-913
-914
-916
-916
-917
-918
-917
-916
-914
-912
-912
-913
-914
-916
-917
-917
-915
-915
-913
-912
-910
-911
-912
-913
-914
-915
-915
-914
-913
-911
-910
-912
-912
-913
-915
-915
-915
-915
-913
-912
-911
-912
-914
-915
-917
-917
-917
-916
-914
-914
-914
-915
-916
-917
-918
-920
-920
-918
-917
-916
-915
-914
-916
-919
-921
-922
-922
-920
-919
-917
-917
-919
-921
-921
-921
-922
-921
-920
-919
-918
-919
-920
-921
-922
-923
-924
-923
-922
-920
-918
-918
-920
-921
-923
-924
-924
-923
-922
-920
-920
-920
-920
-922
-924
-925
-925
-924
-923
-921
-920
-921
-922
-923
-925
-926
-926
-925
-924
-921
-921
-922
-924
-925
-925
-925
-926
-926
-924
-923
-922
-922
-923
-925
-926
-927
-928
-927
-926
-925
-924
-923
-923
-923
-924
-921
-917
-915
-914
-913
-911
-912
-914
-915
-918
-920
-919
-918
-916
-911
-907
-906
-907
-907
-908
-909
-911
-912
-912
-911
-910
-912
-914
-915
-918
-921
-922
-922
-921
-919
-918
-919
-922
-924
-927
-929
-930
-929
-928
-927
-926
-927
-928
-929
-931
-932
-931
-930
-927
-926
-928
-929
-931
-931
-931
-931
-932
-931
-929
-927
-927
-928
-929
-930
-931
-932
-931
-928
-927
-924
-921
-922
-923
-925
-929
-925
-909
-884
-853
-821
-787
-755
-731
-710
-710
-757
-805
-841
-873
-887
-888
-893
-903
-914
-931
-945
-958
-968
-974
-977
-981
-984
-985
-983
-982
-980
-972
-961
-951
-942
-938
-934
-932
-929
-928
-926
-924
-922
-919
-918
-917
-918
-919
-920
-920
-920
-918
-915
-913
-912
-911
-912
-913
-914
-914
-914
-912
-910
-909
-908
-908
-909
-909
-909
-910
-910
-909
-907
-905
-903
-903
-904
-905
-905
-906
-905
-903
-901
-899
-898
-897
-898
-898
-898
-899
-898
-896
-893
-891
-889
-888
-888
-889
-888
-886
-884
-882
-879
-875
-873
-873
-872
-872
-871
-869
-867
-864
-861
-857
-855
-855
-855
-855
-854
-854
-851
-848
-846
-844
-843
-843
-844
-845
-845
-846
-846
-844
-843
-844
-846
-849
-851
-854
-858
-861
-862
-864
-865
-867
-869
-873
-877
-881
-884
-886
-888
-889
-889
-892
-894
-897
-900
-902
-905
-906
-908
-908
-907
-906
-907
-910
-912
-914
-915
-915
-916
-915
-914
-914
-915
-916
-916
-916
-916
-916
-915
-912
-911
-910
-910
-911
-913
-913
-914
-915
-913
-911
-911
-909
-909
-911
-913
-913
-914
-914
-913
-911
-910
-909
-909
-911
-912
-913
-913
-913
-911
-910
-909
-907
-908
-910
-911
-913
-914
-915
-914
-912
-910
-910
-910
-911
-913
-914
-914
-914
-913
-911
-910
-910
-911
-912
-914
-915
-916
-917
-916
-914
-912
-912
-913
-914
-916
-918
-918
-919
-917
-915
-915
-914
-914
-915
-918
-920
-919
-919
-917
-916
-916
-915
-915
-916
-918
-919
-920
-920
-919
-916
-915
-915
-917
-919
-920
-921
-921
-921
-919
-918
-917
-917
-918
-920
-921
-922
-923
-922
-919
-918
-917
-918
-919
-919
-921
-922
-923
-923
-921
-919
-919
-919
-919
-920
-922
-923
-922
-922
-921
-920
-919
-919
-920
-922
-923
-923
-924
-922
-921
-920
-919
-918
-919
-920
-922
-924
-924
-923
-920
-918
-916
-916
-915
-914
-911
-911
-911
-909
-908
-907
-906
-906
-909
-913
-914
-913
-911
-907
-903
-902
-900
-899
-901
-903
-906
-909
-911
-908
-907
-907
-906
-908
-911
-915
-917
-918
-917
-915
-914
-915
-915
-916
-920
-922
-923
-924
-924
-923
-922
-920
-920
-921
-923
-924
-925
-926
-925
-924
-923
-921
-920
-922
-923
-924
-925
-925
-924
-923
-922
-920
-921
-922
-923
-924
-924
-923
-921
-917
-915
-914
-914
-916
-919
-910
-890
-862
-828
-792
-752
-717
-690
-671
-691
-749
-806
-851
-880
-886
-887
-891
-901
-921
-941
-955
-969
-978
-981
-981
-978
-977
-976
-975
-971
-963
-954
-946
-938
-930
-924
-919
-916
-915
-916
-915
-914
-913
-912
-910
-908
-906
-906
-906
-907
-907
-908
-907
-905
-903
-902
-900
-900
-901
-901
-901
-901
-900
-900
-899
-896
-894
-895
-895
-896
-896
-897
-896
-895
-893
-891
-889
-889
-891
-891
-892
-892
-891
-890
-887
-885
-883
-882
-883
-883
-883
-882
-881
-878
-876
-873
-871
-870
-869
-869
-869
-869
-867
-864
-860
-856
-855
-854
-853
-850
-850
-849
-846
-842
-838
-835
-834
-833
-832
-832
-832
-831
-830
-827
-825
-822
-821
-821
-822
-824
-825
-826
-827
-828
-827
-827
-829
-832
-836
-840
-845
-849
-851
-853
-855
-857
-860
-863
-867
-872
-876
-879
-881
-881
-881
-882
-884
-887
-890
-893
-895
-897
-898
-898
-898
-897
-898
-899
-901
-903
-904
-905
-905
-904
-903
-901
-901
-902
-903
-904
-906
-906
-906
-904
-902
-901
-901
-900
-902
-904
-905
-906
-906
-902
-900
-899
-899
-900
-900
-902
-904
-905
-903
-901
-899
-898
-899
-900
-901
-902
-903
-904
-903
-901
-900
-899
-899
-901
-901
-902
-904
-904
-903
-901
-900
-900
-901
-902
-903
-905
-905
-905
-904
-902
-902
-902
-902
-903
-904
-906
-907
-907
-908
-906
-904
-904
-904
-905
-907
-908
-908
-908
-909
-908
-905
-903
-904
-905
-907
-908
-910
-910
-909
-908
-907
-906
-906
-907
-908
-909
-910
-909
-908
-907
-906
-906
-907
-908
-910
-912
-911
-910
-909
-908
-907
-907
-907
-907
-909
-911
-912
-912
-912
-910
-907
-907
-908
-909
-910
-911
-911
-912
-911
-909
-908
-908
-908
-910
-911
-911
-912
-912
-910
-910
-909
-908
-909
-910
-911
-913
-914
-912
-911
-910
-908
-907
-908
-910
-910
-909
-908
-904
-901
-899
-897
-897
-898
-900
-901
-902
-904
-904
-902
-898
-895
-893
-892
-893
-894
-894
-895
-896
-897
-897
-895
-895
-897
-898
-899
-902
-905
-905
-905
-904
-902
-903
-905
-907
-909
-912
-913
-913
-911
-908
-908
-908
-910
-913
-915
-915
-915
-915
-912
-911
-910
-910
-911
-913
-915
-915
-914
-913
-912
-911
-910
-912
-913
-915
-916
-915
-914
-913
-911
-907
-905
-904
-906
-907
-909
-912
-905
-888
-861
-829
-796
-763
-731
-706
-685
-691
-742
-791
-829
-859
-872
-873
-879
-889
-902
-919
-932
-943
-953
-959
-963
-965
-967
-966
-965
-964
-960
-950
-940
-931
-925
-919
-916
-915
-912
-910
-907
-905
-904
-902
-900
-900
-901
-902
-902
-902
-900
-899
-897
-896
-895
-895
-897
-896
-897
-897
-896
-893
-892
-891
-891
-890
-891
-892
-893
-893
-892
-889
-888
-886
-886
-888
-888
-888
-888
-888
-888
-887
-885
-883
-882
-883
-883
-883
-883
-882
-881
-878
-876
-873
-873
-873
-873
-872
-873
-872
-869
-866
-863
-861
-859
-858
-858
-858
-856
-855
-852
-849
-845
-841
-840
-839
-839
-839
-838
-837
-834
-831
-829
-828
-828
-829
-830
-831
-831
-832
-830
-829
-828
-829
-831
-834
-836
-839
-842
-845
-847
-849
-850
-852
-855
-860
-864
-868
-871
-873
-875
-875
-876
-879
-881
-884
-888
-890
-892
-893
-893
-893
-894
-895
-897
-899
-901
-903
-903
-903
-902
-901
-900
-900
-901
-901
-902
-904
-904
-905
-904
-901
-901
-900
-900
-901
-902
-902
-903
-903
-902
-899
-898
-898
-899
-899
-900
-901
-902
-902
-901
-899
-898
-897
-897
-898
-898
-900
-901
-900
-898
-896
-896
-897
-898
-900
-901
-902
-902
-902
-900
-898
-896
-896
-897
-900
-902
-903
-904
-903
-900
-899
-898
-898
-899
-900
-902
-904
-905
-904
-903
-901
-900
-901
-903
-904
-904
-906
-905
-904
-903
-902
-902
-902
-903
-905
-906
-906
-906
-905
-904
-903
-903
-904
-904
-905
-906
-906
-906
-906
-905
-904
-904
-905
-905
-906
-907
-909
-907
-906
-906
-904
-903
-903
-905
-906
-907
-908
-908
-908
-906
-904
-904
-904
-905
-907
-908
-909
-909
-908
-906
-905
-904
-905
-906
-908
-910
-910
-909
-907
-906
-906
-905
-906
-908
-909
-909
-909
-907
-904
-900
-896
-895
-894
-895
-897
-899
-899
-898
-898
-897
-895
-894
-892
-892
-892
-892
-891
-890
-889
-890
-891
-892
-892
-893
-896
-898
-899
-899
-900
-899
-899
-899
-900
-901
-904
-905
-906
-907
-907
-906
-906
-906
-908
-908
-909
-910
-910
-910
-909
-908
-906
-906
-907
-908
-909
-910
-912
-911
-909
-906
-907
-907
-907
-908
-909
-910
-911
-910
-908
-905
-904
-903
-902
-902
-902
-902
-903
-905
-900
-884
-859
-829
-798
-766
-734
-707
-684
-677
-721
-771
-811
-846
-865
-868
-873
-882
-892
-909
-922
-933
-945
-953
-958
-961
-963
-963
-961
-958
-953
-944
-934
-926
-919
-914
-911
-908
-905
-901
-898
-896
-894
-894
-895
-896
-896
-896
-895
-894
-892
-889
-889
-889
-890
-889
-890
-891
-890
-888
-886
-884
-883
-883
-885
-886
-886
-887
-885
-883
-881
-879
-878
-878
-879
-882
-881
-881
-879
-878
-875
-873
-873
-873
-874
-875
-875
-875
-873
-871
-868
-866
-865
-865
-865
-865
-864
-864
-862
-859
-855
-853
-852
-850
-850
-849
-847
-846
-844
-841
-837
-834
-831
-830
-830
-829
-829
-828
-825
-822
-820
-818
-816
-816
-816
-816
-818
-818
-815
-815
-814
-813
-815
-817
-820
-822
-824
-827
-829
-830
-832
-835
-838
-842
-846
-850
-852
-855
-856
-857
-859
-861
-864
-868
-871
-874
-877
-878
-879
-880
-879
-879
-881
-883
-885
-887
-889
-889
-889
-888
-887
-886
-886
-888
-890
-891
-891
-892
-892
-890
-888
-887
-887
-888
-890
-891
-891
-891
-890
-888
-887
-886
-886
-888
-889
-890
-890
-889
-888
-886
-885
-885
-886
-887
-888
-889
-888
-888
-887
-886
-885
-884
-885
-886
-888
-888
-888
-888
-887
-886
-885
-885
-886
-888
-889
-890
-891
-890
-889
-888
-888
-887
-888
-889
-890
-891
-892
-892
-891
-890
-889
-889
-890
-891
-893
-893
-894
-893
-893
-891
-891
-891
-893
-893
-894
-895
-895
-895
-894
-892
-891
-891
-892
-894
-896
-897
-897
-896
-894
-892
-891
-890
-892
-894
-895
-896
-896
-895
-894
-893
-892
-893
-893
-894
-896
-896
-896
-895
-894
-893
-891
-891
-893
-894
-896
-896
-895
-895
-895
-893
-892
-893
-893
-894
-895
-896
-896
-895
-894
-892
-891
-892
-894
-895
-896
-897
-896
-894
-892
-889
-887
-885
-883
-883
-883
-883
-883
-882
-881
-880
-880
-882
-884
-883
-882
-880
-878
-877
-875
-873
-873
-875
-878
-881
-882
-881
-883
-883
-881
-881
-883
-886
-889
-889
-888
-889
-890
-889
-888
-889
-890
-891
-893
-895
-897
-896
-895
-895
-893
-892
-892
-893
-894
-895
-896
-897
-897
-895
-893
-892
-892
-893
-895
-896
-896
-896
-896
-895
-893
-891
-892
-892
-892
-893
-892
-891
-890
-888
-886
-887
-883
-868
-844
-813
-779
-743
-706
-674
-648
-644
-693
-753
-803
-841
-858
-860
-863
-870
-883
-901
-917
-931
-943
-950
-952
-953
-951
-948
-945
-943
-937
-928
-919
-912
-907
-901
-895
-891
-888
-884
-883
-883
-882
-883
-882
-883
-881
-879
-877
-875
-875
-876
-876
-876
-876
-876
-875
-872
-871
-870
-870
-870
-871
-872
-872
-871
-870
-868
-866
-865
-865
-867
-867
-868
-868
-868
-866
-864
-862
-860
-861
-862
-862
-862
-862
-861
-860
-858
-855
-854
-855
-854
-854
-854
-853
-852
-848
-845
-843
-841
-840
-839
-839
-839
-838
-834
-832
-829
-825
-823
-821
-821
-821
-820
-819
-816
-813
-809
-806
-804
-804
-805
-805
-805
-804
-804
-801
-798
-796
-797
-798
-799
-801
-804
-806
-808
-808
-810
-812
-814
-819
-822
-826
-831
-834
-837
-839
-840
-843
-846
-849
-852
-856
-860
-862
-863
-864
-863
-865
-867
-869
-872
-876
-877
-879
-879
-878
-878
-878
-877
-878
-881
-883
-884
-885
-883
-882
-880
-879
-879
-881
-882
-883
-884
-885
-883
-881
-877
-877
-879
-880
-880
-881
-881
-882
-881
-879
-878
-878
-878
-879
-880
-881
-881
-882
-880
-879
-877
-877
-877
-879
-880
-881
-882
-881
-880
-878
-876
-877
-877
-878
-880
-881
-883
-883
-882
-880
-879
-879
-879
-880
-882
-883
-884
-885
-884
-882
-881
-880
-881
-883
-885
-887
-887
-886
-886
-885
-883
-883
-883
-885
-887
-887
-888
-887
-886
-884
-883
-884
-886
-888
-887
-888
-889
-887
-886
-886
-885
-885
-885
-887
-889
-890
-891
-891
-889
-888
-886
-886
-887
-887
-889
-890
-890
-890
-888
-886
-885
-885
-887
-890
-891
-892
-892
-891
-890
-888
-887
-886
-888
-890
-891
-892
-893
-891
-890
-888
-888
-888
-890
-892
-892
-893
-893
-892
-888
-885
-882
-879
-877
-878
-880
-881
-882
-882
-881
-879
-880
-881
-882
-882
-880
-878
-875
-874
-872
-870
-870
-871
-874
-878
-880
-881
-882
-881
-879
-879
-880
-883
-886
-887
-887
-888
-888
-888
-888
-889
-890
-890
-893
-894
-894
-895
-895
-895
-893
-892
-892
-892
-893
-895
-897
-897
-897
-895
-894
-892
-893
-894
-895
-895
-896
-897
-897
-895
-893
-891
-891
-891
-892
-892
-892
-891
-889
-888
-888
-889
-882
-865
-841
-813
-782
-749
-718
-692
-669
-676
-728
-776
-814
-846
-858
-859
-862
-869
-880
-897
-910
-922
-933
-941
-948
-949
-951
-949
-945
-942
-938
-931
-923
-916
-911
-906
-900
-894
-890
-886
-885
-885
-886
-887
-888
-887
-885
-883
-881
-879
-879
-878
-880
-881
-881
-880
-878
-877
-875
-873
-872
-874
-875
-875
-876
-876
-875
-873
-871
-869
-869
-871
-871
-872
-873
-872
-869
-867
-866
-864
-865
-865
-866
-866
-867
-867
-865
-863
-862
-860
-859
-859
-859
-860
-859
-857
-854
-851
-850
-848
-847
-847
-847
-846
-845
-843
-840
-837
-834
-831
-830
-829
-830
-829
-827
-826
-823
-820
-818
-816
-816
-815
-817
-817
-817
-815
-813
-811
-809
-810
-811
-813
-816
-818
-820
-822
-822
-822
-822
-825
-829
-834
-838
-842
-844
-847
-848
-849
-850
-852
-855
-860
-864
-866
-869
-869
-869
-870
-870
-872
-874
-877
-880
-882
-883
-884
-884
-882
-881
-881
-882
-885
-886
-888
-888
-887
-886
-884
-882
-882
-884
-885
-886
-887
-888
-887
-885
-883
-882
-881
-882
-885
-886
-886
-886
-885
-884
-882
-880
-880
-881
-883
-884
-885
-885
-884
-882
-880
-878
-879
-881
-883
-884
-885
-885
-884
-882
-880
-880
-881
-884
-884
-885
-887
-886
-885
-884
-882
-881
-882
-883
-885
-886
-888
-888
-887
-886
-884
-882
-883
-885
-887
-888
-889
-889
-889
-886
-885
-884
-883
-886
-888
-889
-890
-890
-889
-888
-887
-887
-887
-888
-889
-891
-891
-890
-889
-888
-886
-886
-887
-889
-890
-891
-892
-893
-891
-888
-886
-886
-888
-889
-891
-892
-892
-892
-890
-889
-887
-886
-887
-889
-891
-892
-892
-893
-891
-890
-888
-887
-889
-891
-891
-893
-893
-891
-889
-887
-884
-882
-880
-879
-878
-879
-880
-879
-879
-877
-876
-877
-879
-882
-883
-882
-879
-875
-873
-871
-869
-869
-871
-874
-877
-879
-879
-879
-879
-878
-878
-878
-881
-884
-887
-888
-887
-886
-885
-884
-884
-887
-889
-892
-894
-895
-895
-894
-892
-891
-889
-890
-892
-893
-894
-895
-895
-894
-893
-891
-890
-890
-892
-893
-895
-895
-895
-894
-892
-891
-890
-890
-892
-893
-894
-893
-890
-888
-886
-884
-884
-886
-878
-860
-835
-804
-771
-736
-701
-674
-652
-668
-726
-779
-821
-852
-860
-860
-863
-872
-887
-905
-920
-934
-945
-950
-952
-951
-949
-945
-943
-941
-936
-928
-919
-913
-907
-899
-893
-888
-885
-884
-885
-888
-887
-886
-885
-882
-880
-878
-877
-877
-878
-879
-880
-879
-878
-875
-874
-873
-873
-872
-873
-874
-875
-875
-873
-871
-869
-868
-867
-867
-868
-869
-870
-871
-869
-866
-864
-863
-862
-862
-863
-864
-865
-865
-862
-860
-857
-856
-855
-854
-855
-856
-856
-855
-853
-850
-847
-844
-842
-842
-842
-842
-840
-838
-837
-833
-828
-825
-823
-822
-822
-821
-819
-818
-815
-812
-809
-807
-805
-804
-805
-805
-805
-803
-801
-800
-797
-796
-796
-798
-800
-801
-803
-806
-806
-807
-807
-809
-813
-817
-821
-826
-829
-832
-834
-835
-837
-839
-841
-845
-850
-855
-858
-860
-861
-862
-862
-862
-864
-868
-870
-874
-874
-876
-876
-874
-873
-874
-875
-877
-879
-881
-881
-881
-881
-879
-878
-877
-878
-879
-880
-881
-882
-882
-881
-879
-877
-876
-877
-879
-881
-880
-881
-880
-879
-878
-876
-875
-876
-878
-878
-880
-880
-880
-879
-876
-875
-874
-875
-877
-879
-880
-881
-880
-879
-877
-876
-875
-877
-879
-880
-881
-882
-881
-879
-878
-878
-878
-878
-880
-882
-884
-884
-882
-881
-880
-880
-879
-880
-882
-884
-886
-885
-885
-884
-883
-882
-882
-883
-885
-886
-888
-888
-887
-885
-883
-883
-884
-885
-887
-888
-889
-889
-887
-886
-884
-883
-884
-885
-888
-889
-888
-889
-888
-886
-886
-884
-884
-885
-887
-888
-889
-889
-888
-886
-884
-883
-884
-886
-887
-890
-891
-890
-889
-886
-885
-885
-885
-886
-888
-889
-889
-890
-889
-887
-885
-885
-885
-886
-888
-889
-890
-889
-888
-885
-884
-882
-881
-882
-881
-879
-876
-875
-873
-871
-870
-871
-871
-873
-876
-880
-879
-878
-874
-868
-864
-864
-865
-864
-866
-869
-871
-872
-871
-869
-869
-870
-871
-873
-875
-878
-881
-882
-879
-876
-875
-876
-877
-880
-884
-886
-887
-886
-884
-883
-882
-882
-884
-886
-888
-889
-889
-887
-885
-884
-883
-883
-885
-887
-889
-888
-888
-888
-886
-883
-882
-883
-883
-886
-886
-886
-886
-885
-882
-878
-875
-874
-875
-879
-881
-871
-849
-819
-783
-747
-710
-677
-651
-635
-664
-724
-778
-818
-843
-847
-847
-853
-866
-886
-905
-919
-931
-939
-941
-939
-937
-937
-937
-938
-935
-927
-918
-909
-900
-893
-887
-883
-881
-881
-882
-882
-880
-878
-875
-872
-871
-870
-870
-873
-875
-874
-873
-872
-870
-867
-866
-866
-867
-867
-868
-868
-867
-865
-864
-862
-862
-862
-864
-864
-865
-865
-864
-863
-859
-857
-858
-858
-860
-860
-860
-861
-860
-857
-855
-853
-851
-852
-853
-855
-854
-853
-852
-851
-848
-845
-843
-842
-842
-843
-843
-841
-838
-835
-831
-828
-825
-825
-824
-824
